Data from FLMT087451__13__14-03-43-937.txt Node

Date: Tue Jun 04 14:03:43 JST 2024
User: power
Spectrometer: FLMT08745
Trigger mode: 0
Integration Time (sec): 2.000000E-1
Scans to average: 11
Electric dark correction enabled: true
Nonlinearity correction enabled: false
Boxcar width: 0
XAxis mode: Wavelengths
Number of Pixels in Spectrum: 3648
>>>>>Begin Spectral Data<<<<<
194.923	-327.04
195.148	-327.04
195.372	-327.04
195.597	-334.08
195.821	-317.6
196.046	69.87
196.271	-57.68
196.495	-100.08
196.72	-19.36
196.944	-34.36
197.169	-27.88
197.393	83.57
197.618	51.36
197.842	78.39
198.067	-1.22
198.291	-109.7
198.516	67.09
198.74	-95.45
198.964	78.2
199.189	13.96
199.413	122.63
199.637	72.83
199.862	11.18
200.086	42.47
200.31	199.27
200.535	20.63
200.759	213.16
200.983	-65.46
201.207	-14.18
201.432	30.25
201.656	159.66
201.88	21.92
202.104	-28.8
202.328	54.5
202.552	118.37
202.777	58.58
203.001	71.54
203.225	-27.69
203.449	-135.62
203.673	62.09
203.897	33.58
204.121	28.77
204.345	100.79
204.569	-51.94
204.793	26.92
205.017	22.85
205.241	94.68
205.465	-5.29
205.689	-22.51
205.912	27.48
206.136	-61.75
206.36	16.37
206.584	88.57
206.808	-55.65
207.032	103.19
207.255	101.9
207.479	87.64
207.703	11.93
207.927	6
208.15	-78.23
208.374	-13.07
208.598	-44.54
208.822	11.74
209.045	6.74
209.269	45.06
209.492	247.41
209.716	133.37
209.94	61.72
210.163	87.46
210.387	155.95
210.61	105.78
210.834	-8.99
211.057	3.59
211.281	-58.05
211.504	-32.13
211.728	-3.81
211.951	160.95
212.175	187.79
212.398	20.81
212.622	-7.51
212.845	191.13
213.068	3.41
213.292	50.62
213.515	-22.32
213.738	-12.88
213.962	9.89
214.185	-39.17
214.408	48.4
214.631	129.67
214.855	71.17
215.078	4.89
215.301	77.46
215.524	10.44
215.747	80.24
215.971	9.89
216.194	23.59
216.417	26.92
216.64	91.9
216.863	741.14
217.086	104.12
217.309	-4.18
217.532	81.9
217.755	-32.88
217.978	94.12
218.201	148.55
218.424	151.33
218.647	-8.07
218.87	35.62
219.093	115.78
219.316	159.84
219.539	56.17
219.762	-25.84
219.985	23.96
220.207	-141.73
220.43	51.91
220.653	63.58
220.876	6.19
221.099	165.39
221.321	20.07
221.544	3.96
221.767	110.41
221.99	13.96
222.212	50.99
222.435	91.71
222.658	151.88
222.88	-69.72
223.103	202.98
223.326	-81.56
223.548	64.87
223.771	32.29
223.993	4.52
224.216	2.85
224.438	58.76
224.661	36.55
224.883	86.35
225.106	229.82
225.328	-19.18
225.551	98.56
225.773	5.08
225.996	23.59
226.218	40.25
226.44	74.13
226.663	80.61
226.885	3.22
227.108	65.61
227.33	62.09
227.552	22.48
227.774	17.48
227.997	41.73
228.219	85.79
228.441	150.95
228.663	169.65
228.886	17.66
229.108	2.85
229.33	19.89
229.552	-43.06
229.774	65.06
229.996	38.58
230.219	96.9
230.441	22.66
230.663	68.57
230.885	-4.55
231.107	41.36
231.329	66.91
231.551	105.23
231.773	17.85
231.995	61.17
232.217	31.55
232.439	2.3
232.661	32.29
232.883	30.07
233.105	-5.48
233.326	11
233.548	150.58
233.77	11.18
233.992	178.54
234.214	7.3
234.436	-43.61
234.657	61.54
234.879	256.85
235.101	-44.72
235.323	41.73
235.544	46.73
235.766	69.31
235.988	115.04
236.21	85.79
236.431	119.11
236.653	97.64
236.874	181.32
237.096	48.58
237.318	-75.82
237.539	63.76
237.761	18.96
237.982	22.66
238.204	176.13
238.425	-35.65
238.647	50.8
238.868	-3.44
239.09	60.8
239.311	-59.16
239.533	31.55
239.754	93.75
239.975	38.95
240.197	2.11
240.418	9.52
240.64	94.12
240.861	52.28
241.082	72.09
241.304	51.73
241.525	20.81
241.746	20.44
241.967	-88.97
242.189	46.54
242.41	143.55
242.631	254.81
242.852	-34.73
243.073	137.63
243.294	10.63
243.516	97.82
243.737	48.58
243.958	-31.58
244.179	61.17
244.4	203.53
244.621	-6.59
244.842	54.87
245.063	138.37
245.284	56.91
245.505	57.47
245.726	86.53
245.947	147.81
246.168	10.63
246.389	9.7
246.61	102.08
246.831	145.22
247.052	32.84
247.272	69.87
247.493	11.74
247.714	150.21
247.935	-33.25
248.156	95.05
248.376	111.89
248.597	142.44
248.818	17.85
249.039	18.96
249.259	40.62
249.48	-48.24
249.701	82.27
249.921	-33.62
250.142	-28.62
250.363	78.57
250.583	38.58
250.804	72.46
251.025	152.81
251.245	123.19
251.466	110.97
251.686	19.89
251.907	-19.36
252.127	101.53
252.348	68.76
252.568	17.48
252.789	133.55
253.009	79.68
253.23	182.06
253.45	68.39
253.67	114.3
253.891	-8.07
254.111	141.51
254.331	82.83
254.552	34.88
254.772	83.57
254.992	28.96
255.213	-26.95
255.433	105.23
255.653	44.51
255.873	69.13
256.093	116.52
256.314	-1.4
256.534	-31.76
256.754	198.16
256.974	18.4
257.194	0.45
257.414	7.3
257.634	79.13
257.855	13.96
258.075	-26.4
258.295	-8.81
258.515	-4.55
258.735	90.6
258.955	51.73
259.175	-2.88
259.395	53.39
259.615	108.01
259.835	94.68
260.054	33.77
260.274	88.75
260.494	103.75
260.714	219.82
260.934	101.34
261.154	94.49
261.374	15.81
261.593	53.21
261.813	-39.35
262.033	14.52
262.253	28.4
262.472	59.32
262.692	52.1
262.912	98.93
263.132	97.64
263.351	135.96
263.571	208.16
263.791	68.76
264.01	157.62
264.23	74.68
264.449	-11.03
264.669	237.59
264.888	170.76
265.108	44.14
265.328	201.31
265.547	48.02
265.767	87.46
265.986	-56.57
266.205	87.46
266.425	42.66
266.644	91.34
266.864	-57.13
267.083	144.48
267.303	36.18
267.522	85.05
267.741	74.68
267.961	161.32
268.18	-29.36
268.399	122.63
268.618	76.35
268.838	138
269.057	12.11
269.276	87.64
269.495	79.31
269.715	202.79
269.934	-6.22
270.153	118.19
270.372	-48.98
270.591	101.9
270.81	130.96
271.029	130.22
271.249	103.01
271.468	34.7
271.687	162.06
271.906	91.16
272.125	150.03
272.344	103.38
272.563	42.84
272.782	54.5
273.001	7.48
273.22	62.83
273.439	83.57
273.657	110.78
273.876	134.66
274.095	-63.79
274.314	149.47
274.533	179.65
274.752	12.11
274.971	117.45
275.189	198.9
275.408	143.73
275.627	32.1
275.846	148.55
276.064	37.84
276.283	-67.31
276.502	108.19
276.72	-17.32
276.939	11.37
277.158	40.62
277.376	17.29
277.595	101.53
277.814	59.32
278.032	141.14
278.251	-21.58
278.469	1.56
278.688	87.09
278.906	230.74
279.125	57.28
279.343	47.65
279.562	32.29
279.78	-70.83
279.999	73.02
280.217	41.73
280.435	56.91
280.654	-56.57
280.872	125.59
281.091	114.3
281.309	103.01
281.527	152.25
281.746	27.29
281.964	-31.95
282.182	55.8
282.4	68.39
282.619	204.64
282.837	184.28
283.055	34.33
283.273	8.59
283.491	57.47
283.71	83.57
283.928	28.77
284.146	37.29
284.364	29.33
284.582	62.65
284.8	92.46
285.018	71.35
285.236	-38.43
285.454	154.84
285.672	116.89
285.89	23.4
286.108	-23.99
286.326	59.69
286.544	89.31
286.762	28.77
286.98	-51.2
287.198	186.31
287.416	342.93
287.634	159.29
287.851	81.16
288.069	65.06
288.287	36.55
288.505	-4
288.723	85.42
288.94	119.85
289.158	59.5
289.376	185.76
289.594	60.43
289.811	2.11
290.029	19.7
290.247	219.45
290.464	107.08
290.682	-48.8
290.9	91.53
291.117	96.16
291.335	63.76
291.552	-37.5
291.77	75.05
291.987	24.88
292.205	60.24
292.422	71.35
292.64	150.03
292.857	-45.65
293.075	53.95
293.292	55.99
293.51	84.12
293.727	32.66
293.945	70.61
294.162	78.94
294.379	68.02
294.597	53.02
294.814	89.86
295.031	62.09
295.249	139.48
295.466	82.27
295.683	58.76
295.9	96.16
296.118	25.25
296.335	-60.46
296.552	91.53
296.769	174.47
296.986	97.82
297.204	50.43
297.421	53.39
297.638	92.27
297.855	100.05
298.072	12.67
298.289	90.97
298.506	1
298.723	126.89
298.94	57.1
299.157	85.05
299.374	60.61
299.591	144.29
299.808	-28.8
300.025	-15.66
300.242	-4.18
300.459	111.15
300.676	-2.51
300.893	-23.62
301.109	107.45
301.326	158.73
301.543	112.63
301.76	24.7
301.977	-6.22
302.193	25.99
302.41	128.92
302.627	-18.07
302.844	18.59
303.06	19.89
303.277	48.4
303.494	76.9
303.71	55.06
303.927	121.52
304.144	50.06
304.36	76.9
304.577	39.88
304.793	108.56
305.01	8.22
305.227	42.66
305.443	72.09
305.66	254.26
305.876	-43.98
306.093	21.74
306.309	72.28
306.526	-54.16
306.742	106.52
306.958	81.53
307.175	86.9
307.391	-2.14
307.608	134.48
307.824	136.89
308.04	96.9
308.257	52.84
308.473	225.56
308.689	15.07
308.905	140.59
309.122	8.96
309.338	-8.62
309.554	120.78
309.77	75.05
309.986	77.27
310.203	-87.49
310.419	39.14
310.635	87.09
310.851	-11.03
311.067	126.52
311.283	102.45
311.499	-47.69
311.715	53.76
311.931	117.08
312.147	81.72
312.363	-53.98
312.579	97.08
312.795	128.74
313.011	-39.35
313.227	10.26
313.443	172.98
313.659	88.57
313.875	56.73
314.091	132.63
314.307	151.33
314.523	31.36
314.738	46.36
314.954	188.72
315.17	-0.66
315.386	54.69
315.602	10.63
315.817	24.14
316.033	36.55
316.249	39.32
316.465	82.46
316.68	25.07
316.896	88.38
317.112	-3.26
317.327	-16.95
317.543	283.32
317.758	52.1
317.974	107.64
318.19	129.11
318.405	21.74
318.621	60.24
318.836	23.77
319.052	15.44
319.267	114.67
319.483	36.73
319.698	92.27
319.914	9.89
320.129	39.88
320.344	158.17
320.56	117.45
320.775	220.38
320.99	104.67
321.206	82.46
321.421	126.33
321.636	44.69
321.852	101.71
322.067	48.77
322.282	-42.69
322.498	8.41
322.713	104.67
322.928	145.77
323.143	-2.14
323.358	37.1
323.574	181.32
323.789	19.33
324.004	27.48
324.219	53.39
324.434	133.55
324.649	43.77
324.864	113.56
325.079	25.99
325.294	34.33
325.509	-18.25
325.724	132.07
325.939	3.96
326.154	77.83
326.369	263.7
326.584	43.4
326.799	-13.81
327.014	185.57
327.229	33.03
327.444	69.68
327.659	6.37
327.873	68.02
328.088	129.11
328.303	53.39
328.518	-9.92
328.733	-9.55
328.947	88.01
329.162	1.37
329.377	75.61
329.591	107.27
329.806	-9.73
330.021	-15.29
330.235	170.39
330.45	64.32
330.665	-43.61
330.879	20.26
331.094	95.79
331.309	60.24
331.523	95.42
331.738	69.68
331.952	89.68
332.167	149.84
332.381	-41.76
332.596	81.35
332.81	1.37
333.025	6
333.239	109.49
333.453	10.26
333.668	70.24
333.882	119.85
334.097	59.32
334.311	85.61
334.525	107.82
334.74	70.24
334.954	-5.66
335.168	176.69
335.382	86.9
335.597	50.25
335.811	-32.88
336.025	49.51
336.239	-34.73
336.453	75.42
336.668	59.13
336.882	-7.33
337.096	82.27
337.31	92.08
337.524	107.45
337.738	52.65
337.952	64.5
338.166	64.13
338.38	84.31
338.594	150.77
338.808	9.89
339.022	200.94
339.236	68.76
339.45	58.76
339.664	245.74
339.878	87.83
340.092	-15.84
340.306	-23.25
340.52	72.28
340.734	125.59
340.948	45.43
341.161	105.78
341.375	86.35
341.589	82.27
341.803	65.06
342.017	75.98
342.23	62.28
342.444	192.98
342.658	68.76
342.871	94.86
343.085	9.89
343.299	-30.65
343.512	39.51
343.726	-19.55
343.94	89.86
344.153	132.63
344.367	134.11
344.58	13.22
344.794	23.96
345.008	-42.32
345.221	-11.77
345.435	80.05
345.648	85.05
345.862	41.36
346.075	7.11
346.288	16.92
346.502	158.17
346.715	81.16
346.929	-85.82
347.142	110.6
347.355	71.35
347.569	84.49
347.782	118.37
347.995	59.87
348.209	51.73
348.422	-66.38
348.635	64.69
348.848	104.67
349.062	15.63
349.275	193.72
349.488	114.3
349.701	110.97
349.914	-78.23
350.128	83.57
350.341	51.91
350.554	-84.16
350.767	27.85
350.98	119.67
351.193	20.26
351.406	25.25
351.619	82.46
351.832	76.9
352.045	11.74
352.258	-4.74
352.471	54.5
352.684	57.1
352.897	69.13
353.11	8.22
353.323	133
353.536	-67.31
353.748	135.4
353.961	-22.69
354.174	9.7
354.387	37.66
354.6	-53.05
354.813	-0.29
355.025	119.11
355.238	123
355.451	50.62
355.664	38.95
355.876	112.63
356.089	152.99
356.302	47.65
356.514	54.13
356.727	48.02
356.94	1.74
357.152	-32.32
357.365	50.25
357.577	-9.36
357.79	-6.22
358.002	-98.41
358.215	5.08
358.427	24.33
358.64	179.09
358.852	-21.77
359.065	-3.26
359.277	1.56
359.49	152.62
359.702	170.76
359.915	10.63
360.127	-8.25
360.339	-21.58
360.552	-5.48
360.764	69.5
360.976	82.83
361.189	-25.47
361.401	175.02
361.613	154.84
361.825	-55.65
362.038	77.09
362.25	155.58
362.462	58.76
362.674	28.77
362.886	161.51
363.099	104.3
363.311	131.33
363.523	115.04
363.735	140.59
363.947	59.87
364.159	139.66
364.371	135.22
364.583	8.04
364.795	41.36
365.007	78.02
365.219	4.71
365.431	68.94
365.643	7.48
365.855	-7.7
366.067	-84.71
366.279	-3.07
366.491	33.96
366.703	58.39
366.914	33.4
367.126	35.25
367.338	139.85
367.55	105.6
367.762	44.51
367.974	29.7
368.185	-27.51
368.397	100.79
368.609	84.86
368.82	107.64
369.032	135.4
369.244	13.78
369.456	148.73
369.667	75.42
369.879	151.88
370.09	-20.84
370.302	68.02
370.514	165.02
370.725	106.71
370.937	-22.32
371.148	31.36
371.36	75.05
371.571	35.44
371.783	43.21
371.994	57.47
372.206	54.5
372.417	244.81
372.629	26.92
372.84	11
373.051	-1.77
373.263	137.07
373.474	86.35
373.685	3.96
373.897	58.95
374.108	73.02
374.319	6
374.531	57.84
374.742	115.23
374.953	39.69
375.164	-28.99
375.375	29.14
375.587	11.55
375.798	86.72
376.009	136.14
376.22	116.71
376.431	68.2
376.642	8.41
376.853	144.66
377.065	90.97
377.276	65.06
377.487	12.85
377.698	-50.65
377.909	82.46
378.12	104.67
378.331	10.26
378.542	20.81
378.753	-6.59
378.964	57.65
379.174	95.97
379.385	51.54
379.596	-25.47
379.807	131.33
380.018	-19.73
380.229	167.06
380.44	210.57
380.65	-22.14
380.861	85.24
381.072	60.8
381.283	95.6
381.493	147.99
381.704	150.95
381.915	26.74
382.126	-5.85
382.336	142.81
382.547	150.03
382.757	58.58
382.968	-24.91
383.179	24.7
383.389	135.4
383.6	63.02
383.81	36.36
384.021	233.71
384.231	245.74
384.442	32.47
384.652	23.59
384.863	171.13
385.073	134.48
385.284	143.18
385.494	71.91
385.705	32.47
385.915	26.74
386.125	35.81
386.336	34.7
386.546	-23.25
386.756	140.96
386.967	16
387.177	182.61
387.387	174.47
387.598	52.28
387.808	53.58
388.018	136.89
388.228	52.84
388.439	80.61
388.649	-20.47
388.859	-40.84
389.069	140.96
389.279	-11.96
389.489	49.14
389.699	40.62
389.909	53.39
390.12	-58.79
390.33	138.74
390.54	72.09
390.75	167.62
390.96	45.99
391.17	24.88
391.38	-6.22
391.59	-53.05
391.799	24.14
392.009	143.92
392.219	66.72
392.429	34.7
392.639	57.65
392.849	34.7
393.059	145.96
393.269	158.17
393.478	82.27
393.688	162.25
393.898	147.81
394.108	-25.47
394.317	17.85
394.527	10.63
394.737	92.46
394.947	65.24
395.156	-2.7
395.366	117.63
395.576	162.8
395.785	85.79
395.995	132.07
396.204	104.67
396.414	-46.2
396.624	38.77
396.833	-12.33
397.043	61.72
397.252	64.5
397.462	227.6
397.671	68.76
397.881	-24.91
398.09	57.65
398.299	-0.29
398.509	76.35
398.718	84.12
398.928	93.38
399.137	178.72
399.346	77.27
399.556	86.72
399.765	-42.13
399.974	14.52
400.184	76.9
400.393	110.04
400.602	111.89
400.811	103.75
401.021	80.24
401.23	193.35
401.439	112.26
401.648	139.11
401.857	46.54
402.066	64.13
402.276	94.12
402.485	204.27
402.694	90.05
402.903	142.44
403.112	5.08
403.321	212.79
403.53	176.32
403.739	59.5
403.948	68.02
404.157	169.28
404.366	73.2
404.575	84.31
404.784	193.53
404.993	162.25
405.202	310.72
405.411	248.7
405.619	59.13
405.828	156.69
406.037	207.42
406.246	144.48
406.455	113.19
406.663	210.01
406.872	134.66
407.081	240.74
407.29	220.38
407.498	205.75
407.707	185.94
407.916	196.13
408.124	287.58
408.333	402.54
408.542	154.47
408.75	262.96
408.959	228.89
409.168	258.51
409.376	263.51
409.585	309.79
409.793	447.53
410.002	342.93
410.21	376.07
410.419	384.03
410.627	312.38
410.836	356.07
411.044	387.55
411.253	398.47
411.461	305.35
411.669	506.4
411.878	529.91
412.086	352.56
412.294	493.62
412.503	369.77
412.711	497.7
412.919	549.16
413.128	495.29
413.336	441.23
413.544	676.16
413.752	666.16
413.961	677.82
414.169	598.96
414.377	719.66
414.585	844.44
414.793	655.42
415.001	641.17
415.209	759.28
415.418	682.82
415.626	829.63
415.834	757.43
416.042	788.34
416.25	744.65
416.458	733.18
416.666	847.03
416.874	1014.38
417.082	1029.93
417.29	944.22
417.498	997.91
417.706	1067.51
417.913	1100.65
418.121	1150.45
418.329	1335.02
418.537	1155.63
418.745	1183.96
418.953	1319.1
419.161	1473.68
419.368	1396.85
419.576	1331.13
419.784	1468.5
419.992	1542.92
420.199	1689.54
420.407	1569.21
420.615	1722.86
420.822	1703.42
421.03	1755.63
421.238	1827.83
421.445	1791.54
421.653	1756.37
421.861	1989.26
422.068	1932.98
422.276	2029.98
422.483	2028.5
422.691	2195.67
422.898	2445.78
423.106	2151.8
423.313	2291.75
423.521	2438.56
423.728	2524.46
423.936	2488.17
424.143	2605.36
424.35	2786.59
424.558	2662.38
424.765	2765.86
424.973	2762.53
425.18	2785.11
425.387	3030.41
425.594	2998.93
425.802	3272.55
426.009	3122.04
426.216	3125.75
426.424	3348.27
426.631	3491.18
426.838	3424.91
427.045	3464.9
427.252	3578.01
427.459	3799.23
427.667	3838.48
427.874	3802.38
428.081	3848.66
428.288	3969.37
428.495	4104.51
428.702	4310
428.909	4291.3
429.116	4258.16
429.323	4503.64
429.53	4587.13
429.737	4656.55
429.944	4815.76
430.151	4912.03
430.358	5080.12
430.565	5103.08
430.772	5127.14
430.979	5303.01
431.185	5506.84
431.392	5529.79
431.599	5805.26
431.806	5822.48
432.013	5976.69
432.219	6082.21
432.426	6216.98
432.633	6357.12
432.84	6434.87
433.046	6533.55
433.253	6708.31
433.46	6985.07
433.666	7097.44
433.873	7269.24
434.08	7456.21
434.286	7550.63
434.493	7842.39
434.7	7841.09
434.906	7961.24
435.113	8097.12
435.319	8479.96
435.526	8438.12
435.732	8706
435.939	8711.55
436.145	8946.66
436.352	9208.8
436.558	9315.99
436.765	9587.39
436.971	9611.64
437.177	9858.6
437.384	10059.64
437.59	10077.23
437.796	10234.77
438.003	10369.36
438.209	10700.73
438.415	10734.06
438.622	11147.07
438.828	11258.7
439.034	11351.64
439.24	11314.8
439.447	11660.06
439.653	11549.72
439.859	11981.99
440.065	11843.7
440.271	11994.95
440.477	12058.26
440.683	12436.66
440.89	12439.44
441.096	12875.41
441.302	12544.4
441.508	12676.4
441.714	12625.86
441.92	12770.63
442.126	12761
442.332	13166.24
442.538	12980.56
442.744	12929.65
442.95	13077.2
443.156	12910.21
443.361	13167.35
443.567	13155.14
443.773	12982.6
443.979	13127.37
444.185	12836.72
444.391	12787.11
444.596	12730.46
444.802	12815.06
445.008	12854.49
445.214	12629.56
445.42	12554.4
445.625	12574.95
445.831	12464.25
446.037	12547.92
446.242	12350.21
446.448	12204.7
446.654	12104.55
446.859	11786.87
447.065	11673.02
447.27	11709.12
447.476	11394.4
447.682	11163.92
447.887	11291.29
448.093	11233.71
448.298	10787.19
448.504	10823.29
448.709	10462.66
448.915	10566.33
449.12	10004.29
449.325	10092.22
449.531	9958.01
449.736	9690.5
449.942	9453.73
450.147	9355.24
450.352	9377.27
450.558	8967.03
450.763	8698.41
450.968	8910.2
451.174	8628.99
451.379	8282.43
451.584	8183.02
451.789	8160.43
451.995	8007.15
452.2	7697.25
452.405	7644.12
452.61	7433.26
452.815	7590.06
453.02	7115.21
453.226	7062.45
453.431	7073.56
453.636	6831.23
453.841	6755.88
454.046	6646.47
454.251	6667.76
454.456	6437.84
454.661	6346.2
454.866	6225.13
455.071	6139.41
455.276	6052.22
455.481	5837.66
455.686	5827.11
455.891	5813.96
456.095	5627.54
456.3	5585.89
456.505	5390.39
456.71	5536.83
456.915	5371.51
457.12	5224.71
457.324	5026.06
457.529	5116.41
457.734	4997.93
457.939	4894.81
458.144	4785.59
458.348	4757.45
458.553	4800.58
458.758	4550.66
458.962	4526.41
459.167	4544.18
459.372	4447.73
459.576	4670.07
459.781	4378.68
459.985	4312.59
460.19	4300
460.394	4135.98
460.599	4197.07
460.803	4047.12
461.008	4089.88
461.212	3896.24
461.417	3919.2
461.621	3716.11
461.826	3729.44
462.03	3591.52
462.235	3623.55
462.439	3657.61
462.643	3756.1
462.848	3620.96
463.052	3428.06
463.256	3514.33
463.461	3292.36
463.665	3281.44
463.869	3375.3
464.074	3211.27
464.278	3160.18
464.482	3210.53
464.686	2971.54
464.89	3124.08
465.095	3242
465.299	2935.81
465.503	2953.76
465.707	2913.04
465.911	2847.13
466.115	2840.47
466.319	2785.67
466.523	2951.73
466.727	2712.54
466.931	2779.56
467.135	2659.41
467.339	2664.04
467.543	2651.45
467.747	2679.96
467.951	2562.78
468.155	2518.9
468.359	2643.86
468.563	2514.09
468.767	2463.18
468.971	2403.75
469.175	2453.55
469.379	2410.6
469.582	2480.4
469.786	2369.14
469.99	2344.14
470.194	2405.79
470.397	2433.93
470.601	2378.95
470.805	2444.85
471.009	2378.02
471.212	2394.68
471.416	2359.51
471.62	2355.81
471.823	2372.28
472.027	2411.9
472.23	2172.53
472.434	2518.72
472.638	2330.44
472.841	2332.85
473.045	2332.85
473.248	2333.96
473.452	2406.16
473.655	2358.77
473.859	2347.85
474.062	2348.22
474.266	2368.58
474.469	2261.39
474.672	2366.91
474.876	2340.44
475.079	2315.63
475.283	2418.75
475.486	2351.55
475.689	2305.82
475.893	2344.7
476.096	2539.64
476.299	2344.33
476.502	2381.35
476.706	2423.01
476.909	2396.16
477.112	2524.83
477.315	2457.81
477.519	2555.56
477.722	2491.69
477.925	2382.65
478.128	2447.44
478.331	2435.41
478.534	2398.39
478.737	2543.52
478.94	2477.99
479.143	2319.89
479.346	2545.93
479.549	2560.93
479.752	2485.21
479.955	2508.54
480.158	2563.52
480.361	2480.77
480.564	2567.41
480.767	2503.72
480.97	2535.56
481.173	2535.19
481.376	2641.83
481.579	2554.26
481.782	2586.29
481.984	2650.53
482.187	2630.53
482.39	2698.1
482.593	2658.86
482.796	2711.8
482.998	2650.53
483.201	2787.89
483.404	2696.62
483.606	2562.59
483.809	2837.5
484.012	2696.25
484.214	2774.19
484.417	2807.33
484.62	2716.99
484.822	2721.8
485.025	2908.04
485.227	3000.79
485.43	2837.69
485.632	2869.16
485.835	3047.62
486.037	3033
486.24	2896.19
486.442	3250.71
486.645	3063.54
486.847	3063.54
487.05	3096.68
487.252	3130.74
487.455	3089.65
487.657	3135.93
487.859	3189.8
488.062	3191.84
488.264	3171.66
488.466	3186.1
488.668	3317.35
488.871	3239.97
489.073	3344.56
489.275	3404.73
489.477	3406.4
489.68	3417.32
489.882	3490.07
490.084	3579.67
490.286	3697.6
490.488	3594.3
490.69	3594.48
490.893	3804.97
491.095	3592.82
491.297	3847.37
491.499	3931.04
491.701	3975.66
491.903	3917.16
492.105	3977.33
492.307	4030.83
492.509	4239.83
492.711	4044.16
492.913	4223.54
493.115	4247.98
493.317	4254.09
493.518	4271.68
493.72	4361.28
493.922	4453.28
494.124	4489.2
494.326	4591.02
494.528	4534.56
494.73	4733.38
494.931	4876.85
495.133	4620.08
495.335	4847.05
495.537	4825.94
495.738	5077.34
495.94	5040.87
496.142	4958.12
496.343	5148.99
496.545	5168.8
496.747	5320.6
496.948	5277.47
497.15	5444.45
497.351	5395.58
497.553	5450.56
497.755	5633.46
497.956	5789.71
498.158	5666.79
498.359	5838.95
498.561	5855.06
498.762	5795.08
498.964	5954.66
499.165	6177.55
499.366	6111.83
499.568	6127.01
499.769	6335.46
499.971	6351.57
500.172	6433.58
500.373	6489.67
500.575	6546.14
500.776	6692.94
500.977	6675.54
501.178	6852.33
501.38	6920.09
501.581	7062.08
501.782	7030.98
501.983	7081.33
502.185	7105.03
502.386	7264.24
502.587	7266.28
502.788	7455.1
502.989	7471.21
503.19	7692.62
503.391	7670.78
503.593	7828.69
503.794	7829.98
503.995	7914.77
504.196	8188.76
504.397	8071.39
504.598	8193.02
504.799	8182.09
505	8454.6
505.201	8452.75
505.402	8547.72
505.602	8573.64
505.803	8597.52
506.004	8707.67
506.205	8976.29
506.406	8988.87
506.607	8993.5
506.808	9216.02
507.008	9210.28
507.209	9336.54
507.41	9487.05
507.611	9339.5
507.812	9430.21
508.012	9463.91
508.213	9611.45
508.414	9650.33
508.614	9722.34
508.815	9671.8
509.016	10142.21
509.216	10058.72
509.417	10058.72
509.617	10199.23
509.818	10231.81
510.019	10348.44
510.219	10396.76
510.42	10438.23
510.62	10528.38
510.821	10571.15
511.021	10775.16
511.222	10808.66
511.422	10861.42
511.623	10808.66
511.823	11208.35
512.023	10901.41
512.224	11225.75
512.424	11104.12
512.624	11213.72
512.825	11172.62
513.025	11488.26
513.225	11422.36
513.426	11478.82
513.626	11622.85
513.826	11751.51
514.026	11824.82
514.227	11939.78
514.427	11949.78
514.627	11906.83
514.827	12214.88
515.027	12169.15
515.228	12278.01
515.428	12493.13
515.628	12345.02
515.828	12407.6
516.028	12420.74
516.228	12741.75
516.428	12726.75
516.628	12735.83
516.828	12642.89
517.028	12803.21
517.228	12810.62
517.428	12928.73
517.628	12993.52
517.828	13240.66
518.028	13237.15
518.228	13008.15
518.428	13133.11
518.627	13240.29
518.827	13241.59
519.027	13315.27
519.227	13563.15
519.427	13501.14
519.626	13451.89
519.826	13487.44
520.026	13474.66
520.226	13609.44
520.425	13683.67
520.625	13520.02
520.825	13526.87
521.024	13664.23
521.224	13667.94
521.424	13779.2
521.623	13723.47
521.823	13674.23
522.023	13862.32
522.222	13848.06
522.422	13806.41
522.621	13976.91
522.821	13930.26
523.02	13939.89
523.22	13985.06
523.419	14062.62
523.619	13951.92
523.818	13976.73
524.017	14003.01
524.217	14037.63
524.416	14150.19
524.616	14373.45
524.815	13902.67
525.014	14126.49
525.214	14105.57
525.413	14269.04
525.612	14235.35
525.812	14365.31
526.011	14223.31
526.21	14351.05
526.409	14292
526.608	14498.97
526.808	14389.19
527.007	14461.94
527.206	14357.34
527.405	14305.69
527.604	14263.67
527.803	14481.93
528.003	14292
528.202	14595.97
528.401	14718.71
528.6	14357.53
528.799	14529.7
528.998	14425.66
529.197	14408.25
529.396	14522.48
529.595	14564.87
529.794	14588.57
529.993	14488.78
530.192	14713.34
530.39	14440.47
530.589	14554.13
530.788	14606.15
530.987	14384.56
531.186	14548.39
531.385	14440.28
531.583	14638.55
531.782	14531.18
531.981	14463.42
532.18	14369.75
532.379	14370.3
532.577	14407.14
532.776	14351.24
532.975	14452.5
533.173	14309.95
533.372	14357.9
533.571	14351.05
533.769	14356.05
533.968	14690.57
534.166	14282.18
534.365	14274.41
534.564	14288.48
534.762	14321.06
534.961	14272
535.159	14298.66
535.358	14263.67
535.556	14205.36
535.755	14296.25
535.953	14069.29
536.151	14400.11
536.35	14108.72
536.548	14151.85
536.747	14146.12
536.945	14124.46
537.143	13993.02
537.342	14081.14
537.54	14141.3
537.738	14190.73
537.937	14138.16
538.135	14058.74
538.333	13950.99
538.531	14094.47
538.73	13962.47
538.928	14015.6
539.126	13973.02
539.324	14163.15
539.522	14090.58
539.72	13939.33
539.919	13945.62
540.117	13898.42
540.315	13872.68
540.513	13921.56
540.711	13856.95
540.909	13857.5
541.107	13890.46
541.305	13726.62
541.503	13893.05
541.701	13662.57
541.899	13888.05
542.097	13799.37
542.295	13673.49
542.493	13626.47
542.691	13543.35
542.888	13652.38
543.086	13545.38
543.284	13420.42
543.482	13593.51
543.68	13541.68
543.878	13688.85
544.075	13347.67
544.273	13380.43
544.471	13297.31
544.669	13442.82
544.866	13478.74
545.064	13367.66
545.262	13276.21
545.459	13211.04
545.657	13380.99
545.855	13158.84
546.052	13135.33
546.25	13215.86
546.447	13137.36
546.645	12957.98
546.842	13024.25
547.04	12899.48
547.238	12838.57
547.435	12917.43
547.633	12815.61
547.83	12877.45
548.027	12710.46
548.225	12823.39
548.422	12781.92
548.62	12456.66
548.817	12706.95
549.014	12602.35
549.212	12698.8
549.409	12604.57
549.606	12590.13
549.804	12504.23
550.001	12508.68
550.198	12466.47
550.396	12203.4
550.593	12291.34
550.79	12186.56
550.987	12185.82
551.184	12198.22
551.382	12479.61
551.579	12099.73
551.776	11995.32
551.973	12038.64
552.17	12025.13
552.367	12212.1
552.564	11884.06
552.761	11910.72
552.958	11887.58
553.155	11870.92
553.353	11952.19
553.55	11787.42
553.746	11729.11
553.943	11834.45
554.14	11845.74
554.337	11675.61
554.534	11805.2
554.731	11662.09
554.928	11590.82
555.125	11747.07
555.322	11415.14
555.519	11399.22
555.715	11386.63
555.912	11286.66
556.109	11262.04
556.306	11173.92
556.503	11275.55
556.699	11168.55
556.896	11178.54
557.093	11132.08
557.289	11019.34
557.486	10941.58
557.683	11078.39
557.879	10794.96
558.076	10786.26
558.273	10810.33
558.469	10642.79
558.666	10547.64
558.862	10708.14
559.059	10543.38
559.255	10540.79
559.452	10516.72
559.648	10323.08
559.845	10355.84
560.041	10304.75
560.238	10444.15
560.434	10240.7
560.631	10107.41
560.827	10173.13
561.023	9990.41
561.22	10029.65
561.416	9930.8
561.612	9935.05
561.809	9787.32
562.005	9755.85
562.201	9755.85
562.398	9798.99
562.594	9618.86
562.79	9607.75
562.986	9716.42
563.182	9558.51
563.379	9511.67
563.575	9421.33
563.771	9415.22
563.967	9541.1
564.163	9218.43
564.359	9308.03
564.555	9477.42
564.751	9189.74
564.947	9114.94
565.144	9069.03
565.34	9234.17
565.536	9164.56
565.732	9041.45
565.928	9015.53
566.123	8967.4
566.319	8972.58
566.515	8969.07
566.711	8832.63
566.907	8860.58
567.103	8671.01
567.299	8631.4
567.495	8705.82
567.691	8501.99
567.886	8763.2
568.082	8616.21
568.278	8603.07
568.474	8642.13
568.669	8572.71
568.865	8442.57
569.061	8310.2
569.257	8473.48
569.452	8302.98
569.648	8231.52
569.844	8289.65
570.039	8242.82
570.235	8267.25
570.43	8155.81
570.626	8239.3
570.822	8349.45
571.017	8241.89
571.213	8054.73
571.408	7991.6
571.604	8025.85
571.799	7934.21
571.995	7964.39
572.19	7814.99
572.385	7780.19
572.581	7908.29
572.776	7866.08
572.972	7876.64
573.167	7683.73
573.362	7748.9
573.558	7716.5
573.753	7713.91
573.948	7696.32
574.144	7630.05
574.339	7635.6
574.534	7507.87
574.729	7435.3
574.925	7627.09
575.12	7609.87
575.315	7356.43
575.51	7529.34
575.705	7484.17
575.9	7462.69
576.096	7450.85
576.291	7429
576.486	7405.31
576.681	7393.27
576.876	7504.16
577.071	7361.43
577.266	7392.35
577.461	7451.22
577.656	7483.06
577.851	7502.68
578.046	7463.81
578.241	7487.32
578.436	7415.67
578.631	7414.19
578.826	7579.14
579.021	7341.81
579.215	7482.13
579.41	7648.93
579.605	7496.2
579.8	7532.86
579.995	7605.24
580.189	7506.57
580.384	7525.82
580.579	7638.75
580.774	7599.5
580.968	7642.64
581.163	7693.92
581.358	7725.94
581.552	7672.26
581.747	7722.8
581.942	7888.11
582.136	7806.47
582.331	7755.38
582.526	7891.08
582.72	7896.44
582.915	7965.31
583.109	7992.71
583.304	8083.24
583.498	8192.83
583.693	8158.03
583.887	8243.74
584.082	8108.97
584.276	8557.34
584.471	8083.42
584.665	8402.95
584.859	8242.45
585.054	8460.34
585.248	8538.28
585.442	8592.89
585.637	8724.88
585.831	8740.62
586.025	8880.57
586.22	8883.17
586.414	8817.45
586.608	8950.18
586.802	8988.69
586.997	9060.15
587.191	9043.49
587.385	9239.16
587.579	9239.9
587.773	9419.11
587.967	9389.49
588.162	9611.64
588.356	9578.69
588.55	9714.57
588.744	9656.99
588.938	9864.33
589.132	9832.31
589.326	9999.48
589.52	10021.88
589.714	9975.23
589.908	10241.07
590.102	10297.71
590.296	10320.86
590.49	10453.96
590.684	10532.08
590.877	10665.19
591.071	10513.02
591.265	10777.19
591.459	10742.94
591.653	10752.75
591.847	10923.07
592.04	10855.68
592.234	11054.7
592.428	11085.8
592.622	11118.75
592.815	11220.94
593.009	11250
593.203	11519.18
593.397	11417.91
593.59	11730.41
593.784	11534.36
593.977	11565.64
594.171	11667.28
594.365	11857.03
594.558	11742.07
594.752	11946.63
594.945	11889.98
595.139	12040.68
595.332	11876.1
595.526	12026.24
595.719	12091.03
595.913	12236.36
596.106	12171.38
596.3	12223.77
596.493	12365.57
596.687	12307.07
596.88	12370.02
597.073	12447.58
597.267	12394.45
597.46	12452.21
597.653	12489.42
597.847	12532.19
598.04	12540.89
598.233	12777.48
598.426	12315.96
598.62	12651.04
598.813	12535.15
599.006	12708.06
599.199	12748.6
599.392	12633.27
599.586	12660.29
599.779	12586.06
599.972	12615.68
600.165	12718.61
600.358	12637.15
600.551	12993.15
600.744	12662.33
600.937	12749.89
601.13	12758.97
601.323	12761
601.516	12784.88
601.709	12788.96
601.902	12806.73
602.095	12854.49
602.288	12715.46
602.481	12789.33
602.674	12706.02
602.867	12872.45
603.06	12823.2
603.252	12534.96
603.445	12935.02
603.638	12661.96
603.831	12851.9
604.024	12593.83
604.216	12704.72
604.409	12613.64
604.602	12487.94
604.795	12846.53
604.987	12590.13
605.18	12670.66
605.373	12751.75
605.565	12609.94
605.758	12625.12
605.951	12506.45
606.143	12519.23
606.336	12587.54
606.528	12417.41
606.721	12425.37
606.913	12386.12
607.106	12520.89
607.298	12296.71
607.491	12321.7
607.683	12236.91
607.876	12193.78
608.068	11992.17
608.261	12204.88
608.453	12141.57
608.646	12166.75
608.838	11952.93
609.03	12021.42
609.223	11907.94
609.415	11883.13
609.607	11813.34
609.8	11926.45
609.992	11681.9
610.184	11798.35
610.376	11815.93
610.569	11701.71
610.761	11604.33
610.953	11679.13
611.145	11697.08
611.337	11601.37
611.529	11527.32
611.722	11590.08
611.914	11409.03
612.106	11369.41
612.298	11429.76
612.49	11471.41
612.682	11569.35
612.874	11534.73
613.066	11282.22
613.258	11358.86
613.45	11180.95
613.642	11179.66
613.834	11135.04
614.026	11169.1
614.218	11046.74
614.41	11011.19
614.602	10931.59
614.793	11208.54
614.985	11067.65
615.177	10881.97
615.369	10864.94
615.561	10792.19
615.753	10839.95
615.944	10946.95
616.136	10769.05
616.328	10626.13
616.52	10648.9
616.711	10539.12
616.903	10647.79
617.095	10631.31
617.286	10508.2
617.478	10645.38
617.67	10404.35
617.861	10532.27
618.053	10545.41
618.244	10406.01
618.436	10349.37
618.627	10330.67
618.819	10339.18
619.01	10495.24
619.202	10244.03
619.393	10328.26
619.585	10237.18
619.776	10331.22
619.968	10185.53
620.159	10248.1
620.351	10062.23
620.542	10000.77
620.733	10072.42
620.925	9940.61
621.116	9971.15
621.307	9922.28
621.499	9971.52
621.69	9939.31
621.881	9780.29
622.072	9934.68
622.264	9692.54
622.455	9691.24
622.646	9799.17
622.837	9604.79
623.028	9674.21
623.22	9556.66
623.411	9704.39
623.602	9518.33
623.793	9441.14
623.984	9539.81
624.175	9446.13
624.366	9508.71
624.557	9317.29
624.748	9181.59
624.939	9324.69
625.13	9287.3
625.321	9161.6
625.512	9123.65
625.703	9047
625.894	9063.11
626.085	8888.91
626.276	8870.02
626.467	8910.38
626.658	8908.53
626.848	8875.39
627.039	8681.75
627.23	8646.21
627.421	8656.57
627.612	8686.19
627.802	8698.04
627.993	8587.34
628.184	8647.87
628.375	8499.22
628.565	8505.32
628.756	8248.18
628.947	8380.18
629.137	8423.68
629.328	8257.07
629.519	8104.16
629.709	8245.59
629.9	8086.01
630.09	8073.8
630.281	8091.57
630.471	8008.63
630.662	8013.26
630.852	7888.67
631.043	7887.74
631.233	8009.19
631.424	7925.14
631.614	7844.61
631.805	7912
631.995	7831.28
632.185	7664.67
632.376	7701.51
632.566	7656.52
632.756	7640.05
632.947	7602.28
633.137	7423.45
633.327	7665.59
633.518	7478.8
633.708	7615.98
633.898	7576.55
634.088	7469.91
634.279	7278.49
634.469	7239.62
634.659	7349.21
634.849	7274.24
635.039	7187.78
635.229	7252.39
635.42	7130.76
635.61	7114.66
635.8	6975.81
635.99	7132.43
636.18	7064.3
636.37	6923.42
636.56	7078
636.75	7026.72
636.94	6886.95
637.13	6804.2
637.32	6943.23
637.51	6706.45
637.7	6828.82
637.89	6674.24
638.079	6808.46
638.269	6625.74
638.459	6591.86
638.649	6596.86
638.839	6690.16
639.029	6658.14
639.218	6556.87
639.408	6399.7
639.598	6498.56
639.788	6483.01
639.977	6328.8
640.167	6342.31
640.357	6325.84
640.546	6181.62
640.736	6162.55
640.926	6307.51
641.115	6181.99
641.305	6127.57
641.495	6103.5
641.684	6097.94
641.874	6062.03
642.063	5987.24
642.253	5996.5
642.442	6023.15
642.632	6004.27
642.821	5785.08
643.011	5782.3
643.2	5805.63
643.39	5830.07
643.579	5740.65
643.768	5779.34
643.958	5726.95
644.147	5600.7
644.336	5547.57
644.526	5674.75
644.715	5490.36
644.904	5641.42
645.094	5581.07
645.283	5427.23
645.472	5472.59
645.661	5438.71
645.851	5317.27
646.04	5342.82
646.229	5178.05
646.418	5329.49
646.607	5286.17
646.796	5238.03
646.986	5169.17
647.175	5227.48
647.364	5258.58
647.553	5240.81
647.742	5089.38
647.931	5068.46
648.12	4970.53
648.309	4984.41
648.498	4972.19
648.687	5138.07
648.876	4813.36
649.065	4876.48
649.254	4853.34
649.443	4736.16
649.632	4997.74
649.82	4817.24
650.009	4717.46
650.198	4655.44
650.387	4689.32
650.576	4683.03
650.765	4732.27
650.953	4661.55
651.142	4578.62
651.331	4660.26
651.52	4630.64
651.708	4734.31
651.897	4647.85
652.086	4478.83
652.274	4405.71
652.463	4559.55
652.652	4477.91
652.84	4395.16
653.029	4470.87
653.217	4456.25
653.406	4460.87
653.594	4373.31
653.783	4447.73
653.972	4297.41
654.16	4351.47
654.349	4240.02
654.537	4354.06
654.725	4434.22
654.914	4217.43
655.102	4118.02
655.291	4160.97
655.479	4114.87
655.667	4077.48
655.856	4058.6
656.044	4050.08
656.232	4156.53
656.421	4112.28
656.609	3991.21
656.797	4103.03
656.986	3987.51
657.174	3982.32
657.362	3870.14
657.55	3974.92
657.738	3975.66
657.927	3887.72
658.115	3902.72
658.303	3750.73
658.491	3931.41
658.679	3764.06
658.867	3789.79
659.055	3659.65
659.243	3769.06
659.431	3733.7
659.619	3661.13
659.807	3723.15
659.995	3735.37
660.183	3756.66
660.371	3532.47
660.559	3788.5
660.747	3593
660.935	3542.46
661.123	3463.79
661.311	3508.96
661.499	3427.87
661.687	3448.24
661.875	3505.99
662.062	3468.41
662.25	3486.37
662.438	3433.61
662.626	3418.24
662.813	3375.11
663.001	3361.78
663.189	3227.19
663.377	3201.09
663.564	3258.48
663.752	3322.35
663.94	3186.84
664.127	3210.35
664.315	3269.03
664.502	3110.94
664.69	3273.66
664.878	3230.9
665.065	3147.59
665.253	3163.88
665.44	3143.89
665.628	3087.42
665.815	3136.85
666.003	3154.26
666.19	3045.22
666.378	3048.36
666.565	2997.08
666.752	3156.29
666.94	3077.06
667.127	3031.7
667.315	2976.16
667.502	2976.53
667.689	2728.09
667.877	2807.33
668.064	3056.69
668.251	2833.25
668.438	2784
668.626	2808.44
668.813	2798.44
669	2833.25
669.187	2660.34
669.374	2750.87
669.562	2629.61
669.749	2879.71
669.936	2758.09
670.123	2654.79
670.31	2767.71
670.497	2660.34
670.684	2657.19
670.871	2565.55
671.058	2654.97
671.245	2646.82
671.432	2628.68
671.619	2542.04
671.806	2619.61
671.993	2714.4
672.18	2521.31
672.367	2481.51
672.554	2415.6
672.741	2512.05
672.928	2466.7
673.115	2534.82
673.302	2465.96
673.488	2482.06
673.675	2445.96
673.862	2363.95
674.049	2449.85
674.235	2383.39
674.422	2311.01
674.609	2333.78
674.796	2359.14
674.982	2295.64
675.169	2262.87
675.356	2384.13
675.542	2356.18
675.729	2345.62
675.916	2282.87
676.102	2385.8
676.289	2327.85
676.475	2201.23
676.662	2174.94
676.848	2221.22
677.035	2191.23
677.221	2133.84
677.408	2208.45
677.594	2256.58
677.781	2217.52
677.967	2192.9
678.154	2039.43
678.34	2134.21
678.526	1992.03
678.713	2126.25
678.899	2031.1
679.085	2068.49
679.272	1993.7
679.458	2066.64
679.644	2049.61
679.831	1864.48
680.017	2079.6
680.203	2012.4
680.389	2018.69
680.576	2054.79
680.762	1880.77
680.948	1995.37
681.134	1888.36
681.32	1845.04
681.506	1926.31
681.692	1884.48
681.879	1832.46
682.065	1849.49
682.251	1962.97
682.437	1793.58
682.623	1834.49
682.809	1693.43
682.995	1670.1
683.181	1884.11
683.367	1917.61
683.553	1612.15
683.739	1748.41
683.924	1788.02
684.11	1717.31
684.296	1798.21
684.482	1862.63
684.668	1688.8
684.854	1637.52
685.04	1674.73
685.225	1656.4
685.411	1733.41
685.597	1614.56
685.783	1623.45
685.968	1544.4
686.154	1635.3
686.34	1486.64
686.526	1534.03
686.711	1514.96
686.897	1742.48
687.083	1499.78
687.268	1650.29
687.454	1543.47
687.639	1580.5
687.825	1521.26
688.01	1664.73
688.196	1567.72
688.382	1639
688.567	1610.12
688.752	1637.33
688.938	1407.78
689.123	1716.01
689.309	1507.56
689.494	1335.21
689.68	1549.77
689.865	1593.27
690.05	1538.66
690.236	1465.54
690.421	1353.9
690.606	1261.9
690.792	1402.22
690.977	1349.65
691.162	1357.61
691.348	1389.45
691.533	1291.7
691.718	1224.13
691.903	1302.44
692.089	1321.32
692.274	1263.19
692.459	1210.43
692.644	1390.56
692.829	1474.05
693.014	1283.19
693.199	1312.62
693.384	1221.35
693.569	1377.42
693.755	1342.98
693.94	1290.22
694.125	1324.28
694.31	1171
694.495	1234.68
694.68	1141.38
694.864	1266.34
695.049	1174.33
695.234	1152.12
695.419	1379.82
695.604	1190.62
695.789	1215.8
695.974	1289.3
696.159	1142.68
696.344	1201.36
696.528	1206.91
696.713	1113.8
696.898	1226.54
697.083	1184.33
697.267	1090.65
697.452	1098.43
697.637	1095.47
697.822	1099.36
698.006	1148.6
698.191	1155.08
698.375	1154.34
698.56	1149.34
698.745	1130.09
698.929	1118.79
699.114	1142.68
699.298	1102.32
699.483	1214.69
699.668	1021.97
699.852	906.08
700.037	990.32
700.221	912.56
700.405	1180.07
700.59	1180.26
700.774	1011.61
700.959	960.14
701.143	1006.42
701.328	1046.59
701.512	879.43
701.696	900.16
701.881	1019.2
702.065	945.15
702.249	889.42
702.433	1081.77
702.618	954.22
702.802	1008.46
702.986	989.39
703.17	1397.78
703.355	886.46
703.539	830.18
703.723	971.62
703.907	903.12
704.091	1108.98
704.275	905.53
704.46	826.11
704.644	997.54
704.828	850.73
705.012	802.04
705.196	889.24
705.38	777.05
705.564	1038.63
705.748	844.62
705.932	953.11
706.116	809.26
706.3	823.89
706.484	826.48
706.668	915.9
706.851	897.01
707.035	964.4
707.219	950.14
707.403	852.21
707.587	773.9
707.771	901.64
707.954	783.16
708.138	894.98
708.322	788.9
708.506	721.33
708.689	786.86
708.873	653.94
709.057	749.47
709.241	904.42
709.424	747.62
709.608	830.55
709.792	679.3
709.975	727.44
710.159	671.53
710.342	735.03
710.526	808.34
710.709	796.86
710.893	722.25
711.077	761.13
711.26	819.26
711.443	681.71
711.627	826.29
711.81	853.51
711.994	644.87
712.177	666.16
712.361	726.7
712.544	613.96
712.727	725.77
712.911	695.23
713.094	657.27
713.277	713
713.461	718.37
713.644	640.98
713.827	794.64
714.011	574.89
714.194	628.95
714.377	680.05
714.56	757.06
714.743	690.41
714.927	697.45
715.11	631.54
715.293	584.89
715.476	687.82
715.659	694.67
715.842	634.5
716.025	521.95
716.208	608.22
716.391	728.92
716.575	675.97
716.758	697.26
716.941	537.31
717.124	602.85
717.306	602.29
717.489	470.48
717.672	522.87
717.855	615.25
718.038	504.92
718.221	665.24
718.404	450.12
718.587	455.49
718.77	506.58
718.952	526.21
719.135	596.92
719.318	508.06
719.501	519.91
719.684	577.12
719.866	614.7
720.049	572.49
720.232	560.82
720.414	658.39
720.597	650.24
720.78	550.46
720.962	521.58
721.145	568.6
721.328	531.2
721.51	467.52
721.693	484.37
721.875	463.63
722.058	367.74
722.24	532.31
722.423	646.17
722.605	419.02
722.788	428.27
722.97	554.9
723.153	414.76
723.335	360.33
723.518	429.57
723.7	583.78
723.882	460.3
724.065	469.56
724.247	396.62
724.429	450.67
724.612	501.4
724.794	350.71
724.976	480.11
725.159	444.94
725.341	480.66
725.523	432.9
725.705	443.08
725.888	614.51
726.07	380.51
726.252	314.98
726.434	371.81
726.616	445.68
726.798	287.39
726.98	393.84
727.162	350.52
727.345	529.72
727.527	374.96
727.709	349.78
727.891	437.72
728.073	437.34
728.255	349.04
728.437	532.87
728.619	354.78
728.801	428.83
728.982	338.67
729.164	351.26
729.346	391.8
729.528	451.23
729.71	280.36
729.892	363.11
730.074	422.72
730.255	461.78
730.437	371.25
730.619	373.66
730.801	646.72
730.983	374.22
731.164	458.82
731.346	476.41
731.528	323.31
731.709	411.06
731.891	289.06
732.073	304.61
732.254	458.08
732.436	333.3
732.617	279.99
732.799	394.95
732.981	348.67
733.162	360.15
733.344	268.14
733.525	342.56
733.707	385.69
733.888	322.38
734.07	291.84
734.251	322.57
734.433	317.38
734.614	328.31
734.795	378.29
734.977	379.96
735.158	305.54
735.34	420.31
735.521	306.09
735.702	264.07
735.883	348.85
736.065	306.83
736.246	360.33
736.427	404.21
736.609	437.53
736.79	279.06
736.971	240.93
737.152	290.17
737.333	317.94
737.514	283.51
737.696	434.75
737.877	250.18
738.058	267.77
738.239	292.76
738.42	355.7
738.601	288.32
738.782	301.28
738.963	379.59
739.144	270.55
739.325	388.29
739.506	357.19
739.687	237.78
739.868	439.57
740.049	330.34
740.23	330.71
740.411	342.38
740.592	332.19
740.773	188.35
740.953	301.83
741.134	291.47
741.315	251.11
741.496	320.35
741.677	254.63
741.857	319.6
742.038	162.8
742.219	227.97
742.4	263.7
742.58	189.83
742.761	243.7
742.942	230.56
743.122	243.33
743.303	235.56
743.484	219.08
743.664	273.14
743.845	291.28
744.025	307.57
744.206	283.69
744.386	282.76
744.567	148.92
744.748	280.54
744.928	456.04
745.108	324.05
745.289	234.26
745.469	242.96
745.65	389.03
745.83	199.27
746.011	281.65
746.191	336.27
746.371	157.06
746.552	292.95
746.732	272.03
746.912	366.07
747.093	263.88
747.273	254.07
747.453	196.31
747.633	368.29
747.814	145.03
747.994	277.03
748.174	327.19
748.354	250.74
748.534	229.08
748.715	229.45
748.895	319.6
749.075	181.87
749.255	391.06
749.435	202.42
749.615	330.16
749.795	271.66
749.975	275.36
750.155	252.4
750.335	239.26
750.515	246.85
750.695	290.54
750.875	222.41
751.055	267.58
751.235	196.5
751.415	269.07
751.595	170.76
751.775	333.49
751.954	217.79
752.134	314.42
752.314	348.3
752.494	286.1
752.674	172.24
752.854	312.57
753.033	203.9
753.213	187.61
753.393	154.29
753.572	225.01
753.752	133.18
753.932	206.68
754.111	197.42
754.291	218.34
754.471	226.67
754.65	221.12
754.83	184.28
755.01	220.38
755.189	206.31
755.369	134.11
755.548	248.33
755.728	236.3
755.907	235.74
756.087	165.95
756.266	356.26
756.446	138
756.625	162.99
756.804	536.02
756.984	123.74
757.163	192.42
757.343	220.56
757.522	75.61
757.701	169.65
757.881	292.02
758.06	88.38
758.239	142.25
758.418	305.54
758.598	327.38
758.777	210.75
758.956	216.3
759.135	183.35
759.315	178.72
759.494	390.51
759.673	241.11
759.852	123.93
760.031	135.03
760.21	165.21
760.389	87.83
760.568	170.02
760.748	225.38
760.927	145.03
761.106	207.23
761.285	184.46
761.464	130.04
761.643	247.96
761.822	262.22
762	263.88
762.179	111.89
762.358	170.58
762.537	172.43
762.716	156.69
762.895	133.37
763.074	201.86
763.253	269.81
763.431	116.52
763.61	198.16
763.789	178.17
763.968	140.77
764.147	208.53
764.325	181.32
764.504	180.95
764.683	122.82
764.861	226.12
765.04	159.84
765.219	133.55
765.397	156.88
765.576	310.35
765.755	257.77
765.933	136.14
766.112	250.92
766.29	162.8
766.469	78.2
766.647	165.58
766.826	156.14
767.004	201.31
767.183	239.45
767.361	230.56
767.54	326.64
767.718	286.1
767.897	140.59
768.075	95.6
768.253	110.97
768.432	235.37
768.61	118.74
768.788	132.26
768.967	202.98
769.145	122.63
769.323	240
769.501	105.78
769.68	130.96
769.858	198.9
770.036	95.42
770.214	270.92
770.393	136.89
770.571	185.39
770.749	53.02
770.927	19.52
771.105	279.06
771.283	102.64
771.461	139.11
771.639	198.9
771.817	102.64
771.995	101.16
772.173	230
772.351	148.92
772.529	251.29
772.707	280.17
772.885	135.77
773.063	326.45
773.241	273.69
773.419	137.26
773.597	185.39
773.775	83.38
773.953	121.15
774.131	113
774.308	231.67
774.486	228.89
774.664	177.61
774.842	158.92
775.02	259.99
775.197	251.85
775.375	224.08
775.553	110.23
775.73	75.24
775.908	220.93
776.086	199.27
776.263	157.06
776.441	242.78
776.619	26.55
776.796	121.33
776.974	181.13
777.151	85.79
777.329	103.75
777.506	250
777.684	82.64
777.861	191.31
778.039	183.17
778.216	275.36
778.394	249.63
778.571	210.2
778.749	54.69
778.926	146.7
779.103	135.03
779.281	130.41
779.458	266.1
779.635	160.03
779.813	192.79
779.99	111.34
780.167	61.91
780.345	308.87
780.522	282.02
780.699	96.16
780.876	99.49
781.054	150.77
781.231	86.9
781.408	212.6
781.585	142.44
781.762	89.86
781.939	100.6
782.116	159.84
782.294	207.23
782.471	42.66
782.648	109.67
782.825	97.82
783.002	160.77
783.179	136.52
783.356	43.58
783.533	125.78
783.71	110.23
783.887	186.31
784.064	215.19
784.24	77.27
784.417	111.15
784.594	132.44
784.771	149.84
784.948	236.85
785.125	66.35
785.302	125.04
785.478	373.11
785.655	111.15
785.832	11.37
786.009	145.59
786.185	148.55
786.362	242.78
786.539	60.98
786.715	416.8
786.892	152.25
787.069	311.27
787.245	160.58
787.422	90.6
787.599	190.39
787.775	178.72
787.952	93.2
788.128	241.11
788.305	140.4
788.481	109.49
788.658	76.72
788.834	200.57
789.011	84.68
789.187	235.19
789.364	55.24
789.54	303.68
789.717	218.9
789.893	24.33
790.069	182.61
790.246	78.2
790.422	153.92
790.598	147.25
790.775	147.62
790.951	208.16
791.127	125.96
791.304	96.9
791.48	67.65
791.656	166.32
791.832	121.15
792.008	99.67
792.185	129.85
792.361	141.88
792.537	145.59
792.713	162.8
792.889	158.92
793.065	198.16
793.241	152.07
793.417	130.59
793.593	47.84
793.769	168.36
793.945	45.62
794.121	114.86
794.297	146.7
794.473	104.67
794.649	257.22
794.825	122.82
795.001	130.22
795.177	-0.66
795.353	195.01
795.529	160.77
795.705	162.8
795.881	126.89
796.056	150.58
796.232	101.53
796.408	214.45
796.584	104.86
796.76	140.77
796.935	105.97
797.111	70.05
797.287	38.03
797.462	212.6
797.638	218.9
797.814	66.91
797.989	103.75
798.165	202.05
798.341	348.3
798.516	107.27
798.692	194.27
798.867	227.41
799.043	162.8
799.218	243.33
799.394	136.52
799.569	367.55
799.745	177.43
799.92	152.44
800.096	158.73
800.271	198.72
800.447	381.62
800.622	162.25
800.797	44.14
800.973	21.92
801.148	172.8
801.323	203.72
801.499	22.29
801.674	65.98
801.849	232.6
802.025	160.95
802.2	291.84
802.375	195.76
802.55	223.71
802.725	43.58
802.901	111.89
803.076	133.18
803.251	93.57
803.426	115.23
803.601	190.39
803.776	45.25
803.951	56.73
804.127	75.42
804.302	104.49
804.477	137.63
804.652	231.67
804.827	40.62
805.002	39.14
805.177	170.02
805.352	283.69
805.526	160.95
805.701	282.95
805.876	177.61
806.051	99.67
806.226	145.03
806.401	213.9
806.576	134.66
806.751	105.41
806.925	77.27
807.1	161.88
807.275	51.17
807.45	99.86
807.625	458.26
807.799	179.28
807.974	126.89
808.149	34.51
808.323	121.33
808.498	151.88
808.673	169.47
808.847	48.21
809.022	165.39
809.197	242.78
809.371	80.42
809.546	201.86
809.72	86.53
809.895	128.37
810.069	-40.1
810.244	284.43
810.418	59.87
810.593	219.64
810.767	218.16
810.942	233.52
811.116	295.72
811.29	138.55
811.465	105.41
811.639	181.5
811.814	280.36
811.988	267.95
812.162	200.2
812.337	86.53
812.511	198.72
812.685	153.92
812.859	117.63
813.034	160.77
813.208	191.87
813.382	47.65
813.556	145.96
813.73	208.71
813.905	72.83
814.079	82.46
814.253	174.1
814.427	283.51
814.601	49.32
814.775	140.77
814.949	66.91
815.123	177.06
815.297	41.55
815.471	51.36
815.645	89.68
815.819	155.21
815.993	120.22
816.167	105.04
816.341	143.73
816.515	150.77
816.689	-38.06
816.863	129.85
817.037	112.45
817.21	169.65
817.384	91.53
817.558	146.14
817.732	262.22
817.906	104.67
818.079	-6.03
818.253	211.49
818.427	25.81
818.601	133.37
818.774	230.74
818.948	114.86
819.122	274.8
819.295	134.48
819.469	128.55
819.643	124.11
819.816	74.5
819.99	163.17
820.163	70.8
820.337	47.65
820.511	207.23
820.684	149.1
820.858	192.79
821.031	48.58
821.205	105.04
821.378	176.69
821.551	184.46
821.725	172.43
821.898	113.74
822.072	178.54
822.245	233.71
822.418	167.25
822.592	32.29
822.765	52.1
822.938	218.9
823.112	47.1
823.285	203.72
823.458	124.11
823.631	107.45
823.805	147.25
823.978	151.51
824.151	130.22
824.324	168.17
824.497	239.45
824.671	150.77
824.844	152.44
825.017	117.08
825.19	-43.43
825.363	-39.54
825.536	120.41
825.709	119.67
825.882	114.86
826.055	112.08
826.228	-33.43
826.401	72.65
826.574	63.21
826.747	101.34
826.92	171.87
827.093	143.92
827.266	142.62
827.439	130.41
827.612	81.72
827.785	50.8
827.957	119.85
828.13	118
828.303	122.08
828.476	122.45
828.649	32.47
828.821	213.9
828.994	127.63
829.167	102.45
829.34	288.5
829.512	152.44
829.685	237.78
829.858	167.62
830.03	202.42
830.203	229.26
830.375	278.51
830.548	154.84
830.721	127.81
830.893	85.61
831.066	124.3
831.238	122.26
831.411	270.73
831.583	167.43
831.756	185.76
831.928	52.28
832.101	113.19
832.273	134.48
832.446	71.17
832.618	156.69
832.79	160.4
832.963	6.74
833.135	106.15
833.307	104.49
833.48	203.53
833.652	131.33
833.824	238.15
833.997	171.5
834.169	164.28
834.341	135.03
834.513	44.51
834.686	93.01
834.858	128.74
835.03	140.03
835.202	52.65
835.374	50.99
835.546	172.43
835.718	81.9
835.891	133.55
836.063	106.89
836.235	127.44
836.407	93.57
836.579	188.91
836.751	-0.66
836.923	90.6
837.095	170.76
837.267	108.01
837.439	142.25
837.611	67.83
837.782	119.11
837.954	170.39
838.126	142.81
838.298	219.27
838.47	239.45
838.642	47.1
838.814	213.71
838.985	64.87
839.157	69.68
839.329	4.34
839.501	227.78
839.672	20.44
839.844	198.53
840.016	70.43
840.188	181.13
840.359	171.32
840.531	65.24
840.702	29.7
840.874	317.75
841.046	54.69
841.217	63.58
841.389	104.86
841.56	123.74
841.732	-2.51
841.903	118.37
842.075	59.13
842.246	104.3
842.418	200.57
842.589	98.56
842.761	147.99
842.932	106.71
843.104	263.14
843.275	128.18
843.446	18.22
843.618	46.91
843.789	170.39
843.96	-27.32
844.132	129.85
844.303	136.7
844.474	70.05
844.646	121.7
844.817	-17.14
844.988	63.95
845.159	265.18
845.331	199.83
845.502	-0.48
845.673	94.31
845.844	-27.14
846.015	185.39
846.186	91.53
846.357	85.42
846.528	99.67
846.7	26.92
846.871	66.54
847.042	69.5
847.213	121.52
847.384	440.68
847.555	183.72
847.726	17.85
847.897	202.61
848.067	-14.73
848.238	195.2
848.409	122.26
848.58	156.14
848.751	133.55
848.922	119.48
849.093	140.77
849.264	109.3
849.434	175.76
849.605	24.88
849.776	41.92
849.947	22.48
850.117	81.53
850.288	155.77
850.459	48.4
850.63	171.13
850.8	175.39
850.971	272.03
851.142	25.07
851.312	-91.56
851.483	0.08
851.653	128.18
851.824	108.93
851.995	46.36
852.165	186.68
852.336	93.57
852.506	202.05
852.677	184.65
852.847	116.89
853.018	119.11
853.188	53.39
853.358	184.83
853.529	182.24
853.699	152.25
853.87	136.7
854.04	-47.5
854.21	78.2
854.381	94.12
854.551	218.16
854.721	54.87
854.892	114.67
855.062	-20.66
855.232	44.69
855.402	138.74
855.573	119.11
855.743	151.88
855.913	54.13
856.083	73.2
856.253	138
856.423	-6.4
856.594	58.58
856.764	138.18
856.934	131.33
857.104	62.09
857.274	196.5
857.444	28.22
857.614	70.43
857.784	142.81
857.954	29.33
858.124	17.48
858.294	-0.11
858.464	205.2
858.634	21.74
858.804	142.99
858.974	3.22
859.143	18.96
859.313	-6.4
859.483	132.07
859.653	11.37
859.823	75.24
859.993	38.4
860.162	131.7
860.332	167.99
860.502	76.16
860.672	132.63
860.841	160.58
861.011	89.12
861.181	0.63
861.35	244.26
861.52	104.12
861.69	98.56
861.859	105.23
862.029	65.98
862.198	77.09
862.368	101.34
862.538	78.02
862.707	109.49
862.877	147.99
863.046	143.18
863.216	-0.29
863.385	132.07
863.555	125.78
863.724	234.82
863.893	89.68
864.063	272.03
864.232	273.32
864.402	57.28
864.571	47.47
864.74	86.35
864.91	-4.18
865.079	148.18
865.248	111.34
865.418	171.32
865.587	109.86
865.756	130.78
865.925	121.15
866.094	284.25
866.264	170.58
866.433	45.43
866.602	162.62
866.771	38.95
866.94	112.82
867.109	34.51
867.278	90.42
867.448	95.97
867.617	30.99
867.786	170.02
867.955	67.09
868.124	39.51
868.293	105.04
868.462	45.99
868.631	148.18
868.8	260.36
868.969	74.68
869.137	138.55
869.306	131.7
869.475	143.92
869.644	52.1
869.813	18.96
869.982	122.82
870.151	61.35
870.319	68.39
870.488	69.5
870.657	135.22
870.826	25.62
870.995	51.17
871.163	42.47
871.332	128.37
871.501	137.44
871.669	55.24
871.838	157.43
872.007	166.14
872.175	131.89
872.344	17.29
872.512	-40.47
872.681	74.68
872.85	141.14
873.018	89.49
873.187	14.52
873.355	227.6
873.524	22.11
873.692	124.85
873.861	108.93
874.029	90.23
874.197	127.44
874.366	187.98
874.534	122.45
874.703	1
874.871	109.49
875.039	26.55
875.208	20.44
875.376	160.58
875.544	237.22
875.713	76.53
875.881	103.01
876.049	140.59
876.217	144.48
876.386	120.59
876.554	155.77
876.722	167.06
876.89	212.42
877.058	119.85
877.226	94.86
877.395	22.66
877.563	50.62
877.731	35.25
877.899	83.75
878.067	80.98
878.235	53.02
878.403	42.1
878.571	73.39
878.739	66.72
878.907	201.31
879.075	156.69
879.243	48.95
879.411	-6.4
879.579	20.26
879.747	129.3
879.914	27.66
880.082	18.77
880.25	43.03
880.418	111.15
880.586	4.89
880.754	151.51
880.921	128.92
881.089	30.25
881.257	134.85
881.425	63.02
881.592	110.41
881.76	87.46
881.928	216.67
882.095	137.26
882.263	159.47
882.431	48.58
882.598	292.58
882.766	37.1
882.933	41.92
883.101	24.88
883.269	70.98
883.436	123.37
883.604	80.42
883.771	254.44
883.939	40.8
884.106	-29.73
884.273	146.14
884.441	77.09
884.608	35.25
884.776	160.95
884.943	231.48
885.11	9.7
885.278	20.26
885.445	110.41
885.613	134.11
885.78	29.14
885.947	79.13
886.114	162.62
886.282	193.16
886.449	88.01
886.616	139.29
886.783	38.58
886.951	82.83
887.118	29.7
887.285	183.72
887.452	42.84
887.619	55.61
887.786	-83.41
887.953	60.24
888.12	42.66
888.287	142.81
888.455	159.29
888.622	78.2
888.789	77.83
888.956	90.42
889.123	13.41
889.29	21.92
889.456	70.43
889.623	67.28
889.79	86.72
889.957	138.18
890.124	96.34
890.291	124.11
890.458	48.02
890.625	222.6
890.791	94.12
890.958	50.8
891.125	182.61
891.292	107.82
891.459	89.86
891.625	111.89
891.792	135.22
891.959	-58.79
892.125	17.66
892.292	-0.66
892.459	76.53
892.625	169.65
892.792	191.5
892.959	-23.25
893.125	294.06
893.292	6.19
893.458	129.67
893.625	164.1
893.791	89.86
893.958	17.11
894.124	177.24
894.291	56.73
894.457	85.98
894.624	97.64
894.79	92.27
894.957	101.16
895.123	78.39
895.289	106.34
895.456	210.38
895.622	82.09
895.788	72.09
895.955	59.32
896.121	171.69
896.287	331.64
896.454	77.46
896.62	44.69
896.786	98.56
896.952	136.52
897.119	135.59
897.285	155.95
897.451	41.55
897.617	146.33
897.783	118.37
897.949	54.32
898.115	76.72
898.281	-11.03
898.448	191.5
898.614	48.21
898.78	87.83
898.946	130.41
899.112	230
899.278	-5.11
899.444	50.62
899.61	232.6
899.775	114.11
899.941	116.71
900.107	71.54
900.273	77.46
900.439	107.27
900.605	95.05
900.771	148.36
900.937	128.55
901.102	189.83
901.268	170.02
901.434	73.2
901.6	175.02
901.766	143.73
901.931	210.57
902.097	113.19
902.263	170.39
902.428	159.66
902.594	-13.25
902.76	95.23
902.925	65.98
903.091	174.28
903.256	40.06
903.422	200.75
903.588	3.22
903.753	41.55
903.919	159.29
904.084	104.3
904.25	103.56
904.415	242.04
904.581	34.33
904.746	238.89
904.912	139.85
905.077	82.83
905.242	23.77
905.408	58.58
905.573	91.16
905.738	90.79
905.904	752.06
906.069	752.06
