Data from FLMT087451__15__14-05-43-323.txt Node

Date: Tue Jun 04 14:05:43 JST 2024
User: power
Spectrometer: FLMT08745
Trigger mode: 0
Integration Time (sec): 2.000000E-1
Scans to average: 11
Electric dark correction enabled: true
Nonlinearity correction enabled: false
Boxcar width: 0
XAxis mode: Wavelengths
Number of Pixels in Spectrum: 3648
>>>>>Begin Spectral Data<<<<<
194.923	-327.24
195.148	-327.24
195.372	-327.24
195.597	-350.75
195.821	-339.09
196.046	67.08
196.271	-70.84
196.495	-101.39
196.72	-12.16
196.944	-9.01
197.169	-19.75
197.393	86.52
197.618	46.34
197.842	69.67
198.067	-13.08
198.291	-116.57
198.516	73.19
198.74	-119.34
198.964	87.44
199.189	13.76
199.413	128.54
199.637	60.04
199.862	1.73
200.086	44.31
200.31	191.67
200.535	11.35
200.759	182.04
200.983	-63.81
201.207	-51.96
201.432	0.62
201.656	124.28
201.88	0.25
202.104	-50.66
202.328	72.26
202.552	92.62
202.777	13.76
203.001	43.57
203.225	-57.14
203.449	-159.15
203.673	17.28
203.897	12.84
204.121	-17.34
204.345	97.81
204.569	-70.47
204.793	10.06
205.017	7.47
205.241	71.15
205.465	-40.11
205.689	-30.48
205.912	11.35
206.136	-88.98
206.36	11.72
206.584	29.87
206.808	-63.44
207.032	87.07
207.255	73.74
207.479	110.4
207.703	21.35
207.927	16.35
208.15	-64.73
208.374	-15.3
208.598	-78.99
208.822	9.87
209.045	-12.34
209.269	40.42
209.492	229.06
209.716	118.36
209.94	44.31
210.163	90.03
210.387	134.46
210.61	104.47
210.834	-38.44
211.057	-7.16
211.281	-76.4
211.504	-29.74
211.728	-13.08
211.951	149.64
212.175	165.19
212.398	1.17
212.622	-16.6
212.845	199.81
213.068	35.05
213.292	40.97
213.515	-56.22
213.738	-36.22
213.962	-25.3
214.185	-73.62
214.408	42.46
214.631	113.17
214.855	28.2
215.078	-32.15
215.301	54.49
215.524	-16.97
215.747	55.41
215.971	-38.07
216.194	-9.56
216.417	-23.26
216.64	45.42
216.863	686.51
217.086	81.89
217.309	-31.04
217.532	103.55
217.755	-64.36
217.978	48.19
218.201	115.21
218.424	125.58
218.647	-56.96
218.87	5.8
219.093	104.29
219.316	131.13
219.539	10.24
219.762	-19.01
219.985	15.98
220.207	-145.82
220.43	9.13
220.653	67.45
220.876	-15.67
221.099	142.79
221.321	-4.75
221.544	-29.56
221.767	62.08
221.99	-35.3
222.212	42.64
222.435	72.26
222.658	92.44
222.88	-53.44
223.103	140.39
223.326	-90.84
223.548	65.04
223.771	-6.23
223.993	-34.74
224.216	-34.56
224.438	10.61
224.661	3.21
224.883	60.97
225.106	194.44
225.328	-38.26
225.551	92.44
225.773	-14.01
225.996	6.91
226.218	21.72
226.44	63.37
226.663	39.49
226.885	-2.16
227.108	40.97
227.33	63
227.552	26.16
227.774	23.02
227.997	36.53
228.219	37.27
228.441	108.36
228.663	149.83
228.886	-13.27
229.108	-32.71
229.33	2.28
229.552	-57.7
229.774	74.67
229.996	-0.68
230.219	99.1
230.441	-10.86
230.663	51.34
230.885	-29.74
231.107	25.42
231.329	25.05
231.551	88
231.773	-0.31
231.995	38.94
232.217	20.06
232.439	-6.23
232.661	-12.53
232.883	-20.3
233.105	-20.86
233.326	-14.01
233.548	101.33
233.77	-9.19
233.992	145.02
234.214	-16.6
234.436	-54.55
234.657	21.72
234.879	213.51
235.101	-56.59
235.323	27.28
235.544	-12.53
235.766	58.38
235.988	115.02
236.21	72.08
236.431	134.28
236.653	82.26
236.874	147.05
237.096	61.15
237.318	-117.12
237.539	64.67
237.761	5.8
237.982	10.43
238.204	170.56
238.425	-32.52
238.647	43.75
238.868	-34.37
239.09	77.44
239.311	-95.09
239.533	8.02
239.754	91.14
239.975	1.17
240.197	-12.71
240.418	-21.41
240.64	84.85
240.861	45.79
241.082	54.49
241.304	14.69
241.525	-17.34
241.746	-18.45
241.967	-109.16
242.189	-0.31
242.41	115.58
242.631	245.54
242.852	-47.7
243.073	120.58
243.294	11.17
243.516	45.05
243.737	32.27
243.958	-49.74
244.179	16.17
244.4	174.08
244.621	-10.49
244.842	-10.12
245.063	142.79
245.284	56.53
245.505	62.82
245.726	39.12
245.947	100.96
246.168	-12.53
246.389	5.99
246.61	99.84
246.831	128.91
247.052	15.43
247.272	56.15
247.493	5.06
247.714	112.43
247.935	-15.49
248.156	95.4
248.376	73.37
248.597	121.13
248.818	23.02
249.039	-37.15
249.259	18.02
249.48	-53.81
249.701	86.15
249.921	-32.52
250.142	-36.04
250.363	54.67
250.583	27.28
250.804	69.11
251.025	130.39
251.245	114.47
251.466	96.14
251.686	3.21
251.907	-38.81
252.127	115.77
252.348	45.6
252.568	9.87
252.789	101.51
253.009	96.51
253.23	143.35
253.45	46.9
253.67	67.45
253.891	-30.3
254.111	112.99
254.331	54.49
254.552	22.46
254.772	36.35
254.992	16.54
255.213	-50.85
255.433	105.21
255.653	17.65
255.873	54.86
256.093	122.62
256.314	-32.34
256.534	-64.73
256.754	179.45
256.974	-8.27
257.194	-21.78
257.414	-0.68
257.634	51.16
257.855	-7.71
258.075	-65.1
258.295	7.84
258.515	-14.01
258.735	63.19
258.955	29.68
259.175	-19.38
259.395	49.68
259.615	73.19
259.835	68.93
260.054	19.5
260.274	79.48
260.494	92.81
260.714	218.14
260.934	60.6
261.154	82.07
261.374	-8.27
261.593	21.91
261.813	-70.47
262.033	-12.71
262.253	-14.38
262.472	62.63
262.692	34.68
262.912	58.38
263.132	62.45
263.351	112.43
263.571	178.15
263.791	58.01
264.01	146.31
264.23	62.63
264.449	4.5
264.669	188.15
264.888	142.24
265.108	18.76
265.328	158.16
265.547	34.12
265.767	45.79
265.986	-67.14
266.205	81.15
266.425	12.28
266.644	84.66
266.864	-71.95
267.083	134.65
267.303	-16.23
267.522	49.12
267.741	52.27
267.961	133.35
268.18	-47.89
268.399	84.11
268.618	65.41
268.838	100.77
269.057	7.65
269.276	40.42
269.495	32.09
269.715	155.38
269.934	-51.03
270.153	117.25
270.372	-57.88
270.591	85.4
270.81	112.99
271.029	91.7
271.249	46.34
271.468	5.06
271.687	132.61
271.906	68.19
272.125	109.29
272.344	82.81
272.563	15.24
272.782	18.39
273.001	-55.66
273.22	19.87
273.439	67.45
273.657	71.15
273.876	79.67
274.095	-74.73
274.314	107.43
274.533	148.72
274.752	-2.34
274.971	84.29
275.189	177.6
275.408	134.09
275.627	26.72
275.846	113.54
276.064	43.01
276.283	-86.95
276.502	77.81
276.72	-35.67
276.939	17.83
277.158	3.02
277.376	-14.19
277.595	90.77
277.814	2.47
278.032	103.36
278.251	-36.96
278.469	-35.85
278.688	40.42
278.906	203.89
279.125	38.01
279.343	-1.42
279.562	34.12
279.78	-99.54
279.999	41.72
280.217	4.5
280.435	27.46
280.654	-78.62
280.872	63.56
281.091	58.75
281.309	70.04
281.527	121.87
281.746	22.09
281.964	-39.37
282.182	32.83
282.4	28.02
282.619	200.74
282.837	158.53
283.055	-20.86
283.273	-0.31
283.491	21.72
283.71	88.92
283.928	0.06
284.146	-5.31
284.364	15.24
284.582	26.72
284.8	26.72
285.018	51.71
285.236	-71.95
285.454	120.21
285.672	87.44
285.89	-11.05
286.108	-48.07
286.326	48.93
286.544	50.97
286.762	-13.64
286.98	-78.06
287.198	190.56
287.416	272.94
287.634	113.73
287.851	33.2
288.069	57.64
288.287	-10.68
288.505	-35.48
288.723	49.12
288.94	67.63
289.158	26.53
289.376	161.68
289.594	11.91
289.811	-56.59
290.029	-8.45
290.247	183.34
290.464	104.47
290.682	-88.43
290.9	62.26
291.117	58.75
291.335	33.38
291.552	-57.14
291.77	37.64
291.987	-9.01
292.205	21.35
292.422	45.79
292.64	115.77
292.857	-54
293.075	49.12
293.292	4.87
293.51	37.27
293.727	44.49
293.945	28.2
294.162	46.9
294.379	42.27
294.597	53.75
294.814	25.24
295.031	62.45
295.249	86.52
295.466	33.94
295.683	50.97
295.9	55.6
296.118	-7.16
296.335	-56.96
296.552	71.34
296.769	149.27
296.986	86.15
297.204	53.19
297.421	23.94
297.638	35.24
297.855	66.89
298.072	-18.08
298.289	73.74
298.506	-32.15
298.723	109.84
298.94	40.6
299.157	35.79
299.374	53.19
299.591	127.43
299.808	-43.26
300.025	-67.69
300.242	-4.38
300.459	88.74
300.676	-35.48
300.893	-14.56
301.109	90.4
301.326	159.64
301.543	71.52
301.76	4.13
301.977	-29
302.193	-3.27
302.41	109.66
302.627	-62.7
302.844	-10.68
303.06	8.02
303.277	45.6
303.494	66.34
303.71	13.02
303.927	100.77
304.144	-15.67
304.36	52.27
304.577	16.35
304.793	92.99
305.01	-24.93
305.227	5.62
305.443	37.27
305.66	232.95
305.876	-109.53
306.093	-0.86
306.309	27.83
306.526	-61.96
306.742	67.82
306.958	75.04
307.175	65.41
307.391	6.91
307.608	106.51
307.824	95.59
308.04	104.1
308.257	9.13
308.473	208.51
308.689	-19.38
308.905	129.28
309.122	-19.38
309.338	-53.81
309.554	89.66
309.77	54.86
309.986	59.86
310.203	-120.27
310.419	14.13
310.635	66.89
310.851	-55.29
311.067	125.39
311.283	50.05
311.499	-63.25
311.715	0.8
311.931	103.18
312.147	101.88
312.363	-77.51
312.579	91.88
312.795	74.85
313.011	-48.63
313.227	-26.04
313.443	145.2
313.659	60.04
313.875	-18.08
314.091	80.59
314.307	93.18
314.523	18.94
314.738	10.24
314.954	135.76
315.17	-21.6
315.386	59.12
315.602	2.65
315.817	3.02
316.033	15.61
316.249	-1.05
316.465	47.45
316.68	0.8
316.896	59.49
317.112	-54
317.327	-32.52
317.543	252.39
317.758	10.98
317.974	76.33
318.19	102.44
318.405	24.5
318.621	30.79
318.836	-5.12
319.052	-12.9
319.267	95.77
319.483	14.69
319.698	82.07
319.914	-10.68
320.129	9.13
320.344	124.1
320.56	84.48
320.775	169.27
320.99	80.22
321.206	82.07
321.421	77.63
321.636	35.98
321.852	96.51
322.067	35.05
322.282	-29.37
322.498	-38.07
322.713	70.96
322.928	110.58
323.143	-10.68
323.358	45.79
323.574	148.53
323.789	0.62
324.004	-10.68
324.219	23.76
324.434	123.73
324.649	13.02
324.864	78.74
325.079	39.31
325.294	-17.16
325.509	-38.07
325.724	137.43
325.939	-12.9
326.154	67.08
326.369	252.94
326.584	33.2
326.799	-24.56
327.014	160.01
327.229	-10.31
327.444	38.01
327.659	-9.38
327.873	49.49
328.088	94.29
328.303	13.39
328.518	-34.74
328.733	-28.82
328.947	66.89
329.162	-30.67
329.377	58.75
329.591	103.36
329.806	-6.79
330.021	-61.77
330.235	128.91
330.45	58.01
330.665	-89.17
330.879	4.69
331.094	55.04
331.309	68.93
331.523	61.89
331.738	60.6
331.952	66.34
332.167	138.35
332.381	-51.77
332.596	25.24
332.81	-19.01
333.025	-41.04
333.239	78.18
333.453	-16.97
333.668	60.04
333.882	81.7
334.097	23.39
334.311	43.01
334.525	70.78
334.74	72.26
334.954	-60.47
335.168	137.98
335.382	48.38
335.597	31.53
335.811	-51.22
336.025	52.45
336.239	-75.84
336.453	58.38
336.668	37.64
336.882	-51.4
337.096	81.52
337.31	75.04
337.524	85.03
337.738	65.78
337.952	14.32
338.166	51.16
338.38	45.42
338.594	140.02
338.808	-21.97
339.022	189.82
339.236	50.42
339.45	34.68
339.664	235.17
339.878	71.89
340.092	-19.93
340.306	-51.77
340.52	43.2
340.734	107.25
340.948	19.13
341.161	79.48
341.375	59.86
341.589	60.23
341.803	35.61
342.017	55.04
342.23	29.31
342.444	181.86
342.658	50.6
342.871	78.56
343.085	-12.71
343.299	-60.29
343.512	15.98
343.726	-28.26
343.94	65.04
344.153	121.32
344.367	85.22
344.58	-9.01
344.794	0.43
345.008	-41.59
345.221	-37.7
345.435	28.94
345.648	31.9
345.862	2.84
346.075	15.43
346.288	16.91
346.502	111.14
346.715	85.03
346.929	-90.28
347.142	85.03
347.355	66.15
347.569	90.59
347.782	97.81
347.995	53.75
348.209	23.57
348.422	-68.25
348.635	49.31
348.848	84.11
349.062	-15.49
349.275	186.85
349.488	93.74
349.701	134.09
349.914	-101.76
350.128	79.48
350.341	20.06
350.554	-87.69
350.767	4.13
350.98	90.77
351.193	7.1
351.406	-45.66
351.619	28.94
351.832	90.03
352.045	-22.34
352.258	-12.9
352.471	40.05
352.684	21.17
352.897	86.15
353.11	-28.45
353.323	91.33
353.536	-110.27
353.748	130.39
353.961	-37.7
354.174	3.58
354.387	23.2
354.6	-57.7
354.813	-31.04
355.025	106.51
355.238	93.92
355.451	33.75
355.664	7.65
355.876	96.88
356.089	150.75
356.302	36.9
356.514	41.72
356.727	2.1
356.94	-11.6
357.152	-39.74
357.365	20.43
357.577	-17.71
357.79	-17.9
358.002	-120.64
358.215	-51.03
358.427	8.02
358.64	134.46
358.852	-53.25
359.065	-58.81
359.277	-31.59
359.49	137.43
359.702	124.28
359.915	19.69
360.127	-40.48
360.339	-13.45
360.552	-21.6
360.764	39.12
360.976	48.75
361.189	-35.67
361.401	127.43
361.613	146.87
361.825	-67.14
362.038	77.81
362.25	108.92
362.462	39.12
362.674	17.65
362.886	152.79
363.099	85.4
363.311	123.91
363.523	76.15
363.735	104.47
363.947	31.9
364.159	142.79
364.371	104.1
364.583	-0.31
364.795	5.62
365.007	68.74
365.219	-7.34
365.431	43.57
365.643	-14.56
365.855	-42.33
366.067	-109.16
366.279	-13.08
366.491	-6.05
366.703	31.35
366.914	17.09
367.126	10.24
367.338	138.91
367.55	67.82
367.762	39.86
367.974	-3.83
368.185	-59.36
368.397	77.07
368.609	101.14
368.82	24.31
369.032	110.21
369.244	3.21
369.456	115.58
369.667	45.23
369.879	117.99
370.09	-19.93
370.302	56.53
370.514	135.2
370.725	86.33
370.937	-45.66
371.148	12.84
371.36	74.11
371.571	14.13
371.783	18.02
371.994	49.68
372.206	10.98
372.417	237.21
372.629	30.79
372.84	-0.68
373.051	-11.05
373.263	112.99
373.474	46.16
373.685	-2.53
373.897	51.9
374.108	81.15
374.319	-9.56
374.531	37.27
374.742	95.4
374.953	14.87
375.164	-65.47
375.375	59.86
375.587	-26.41
375.798	67.08
376.009	118.36
376.22	99.66
376.431	52.45
376.642	-12.34
376.853	88.18
377.065	56.15
377.276	42.83
377.487	-10.68
377.698	-56.22
377.909	47.64
378.12	92.62
378.331	-32.34
378.542	30.24
378.753	-23.63
378.964	11.72
379.174	70.04
379.385	20.06
379.596	-61.96
379.807	75.96
380.018	-56.03
380.229	175.93
380.44	199.81
380.65	-39.37
380.861	53.75
381.072	47.82
381.283	84.66
381.493	166.49
381.704	136.87
381.915	2.1
382.126	-41.96
382.336	108.18
382.547	116.14
382.757	23.2
382.968	-24.75
383.179	11.35
383.389	122.8
383.6	22.46
383.81	4.5
384.021	213.88
384.231	200.55
384.442	14.32
384.652	-7.71
384.863	148.16
385.073	110.4
385.284	128.72
385.494	54.3
385.705	27.46
385.915	13.58
386.125	1.17
386.336	10.06
386.546	-36.78
386.756	130.58
386.967	7.47
387.177	102.44
387.387	146.5
387.598	43.2
387.808	33.94
388.018	88.74
388.228	8.95
388.439	55.6
388.649	-9.01
388.859	-53.81
389.069	95.22
389.279	-20.3
389.489	23.02
389.699	18.57
389.909	1.17
390.12	-63.99
390.33	118.36
390.54	30.98
390.75	115.58
390.96	21.72
391.17	23.2
391.38	-16.6
391.59	-51.22
391.799	5.8
392.009	114.65
392.219	60.78
392.429	15.43
392.639	40.6
392.849	2.65
393.059	136.31
393.269	117.62
393.478	63
393.688	166.49
393.898	102.99
394.108	-49.55
394.317	6.91
394.527	-27.15
394.737	68
394.947	23.02
395.156	-6.97
395.366	78.74
395.576	140.94
395.785	75.41
395.995	109.47
396.204	55.41
396.414	-64.55
396.624	24.87
396.833	-20.3
397.043	-9.01
397.252	31.35
397.462	200.92
397.671	53.75
397.881	-43.81
398.09	20.61
398.299	-43.63
398.509	54.86
398.718	48.01
398.928	66.15
399.137	157.79
399.346	73.74
399.556	55.23
399.765	-92.87
399.974	-13.08
400.184	60.78
400.393	112.25
400.602	45.05
400.811	102.44
401.021	20.98
401.23	154.09
401.439	80.04
401.648	106.51
401.857	16.72
402.066	40.05
402.276	44.49
402.485	155.38
402.694	48.75
402.903	88.74
403.112	3.02
403.321	197.96
403.53	157.79
403.739	9.13
403.948	59.67
404.157	139.28
404.366	53.93
404.575	45.23
404.784	152.79
404.993	127.61
405.202	281.64
405.411	219.62
405.619	35.24
405.828	109.66
406.037	147.05
406.246	82.07
406.455	92.81
406.663	215.36
406.872	105.95
407.081	178.89
407.29	195.18
407.498	187.41
407.707	152.98
407.916	115.02
408.124	224.43
408.333	343.29
408.542	58.93
408.75	177.97
408.959	149.09
409.168	195
409.376	197.78
409.585	233.51
409.793	349.95
410.002	285.53
410.21	304.04
410.419	314.04
410.627	219.44
410.836	308.11
411.044	298.11
411.253	315.52
411.461	229.25
411.669	443.99
411.878	421.41
412.086	275.71
412.294	422.7
412.503	285.53
412.711	437.14
412.919	451.95
413.128	369.94
413.336	328.85
413.544	555.81
413.752	520.64
413.961	564.33
414.169	473.43
414.377	583.58
414.585	720.76
414.793	545.44
415.001	523.04
415.209	619.12
415.418	568.21
415.626	693.73
415.834	623.57
416.042	630.42
416.25	616.72
416.458	577.84
416.666	678.36
416.874	855.34
417.082	879.23
417.29	772.96
417.498	828.5
417.706	878.48
417.913	918.29
418.121	963.46
418.329	1175.06
418.537	1018.44
418.745	990.86
418.953	1116.56
419.161	1254.85
419.368	1243
419.576	1138.59
419.784	1265.95
419.992	1336.67
420.199	1473.48
420.407	1333.52
420.615	1555.31
420.822	1534.94
421.03	1546.23
421.238	1624.73
421.445	1612.14
421.653	1552.71
421.861	1752.84
422.068	1726.55
422.276	1827.81
422.483	1782.09
422.691	1927.22
422.898	2162.15
423.106	1907.23
423.313	2098.1
423.521	2213.61
423.728	2278.22
423.936	2257.3
424.143	2358.2
424.35	2560.54
424.558	2450.58
424.765	2539.25
424.973	2561.1
425.18	2581.83
425.387	2798.24
425.594	2770.29
425.802	3003.55
426.009	2851.74
426.216	2900.99
426.424	3066.68
426.631	3273.28
426.838	3105.55
427.045	3214.78
427.252	3352.51
427.459	3517.27
427.667	3573.55
427.874	3561.15
428.081	3637.97
428.288	3751.27
428.495	3789.04
428.702	4069.13
428.909	4066.54
429.116	3940.84
429.323	4190.76
429.53	4303.13
429.737	4367.93
429.944	4494.55
430.151	4588.78
430.358	4787.98
430.565	4738.55
430.772	4817.6
430.979	4963.66
431.185	5141.38
431.392	5182.48
431.599	5421.85
431.806	5525.89
432.013	5612.16
432.219	5759.89
432.426	5807.47
432.633	6064.61
432.84	6150.51
433.046	6222.15
433.253	6343.22
433.46	6604.62
433.666	6645.16
433.873	6932.29
434.08	7066.14
434.286	7269.96
434.493	7516.55
434.7	7452.5
434.906	7629.11
435.113	7752.22
435.319	8066.19
435.526	8073.04
435.732	8375.72
435.939	8358.13
436.145	8559.18
436.352	8903.14
436.558	8912.4
436.765	9313.94
436.971	9275.62
437.177	9468.7
437.384	9775.64
437.59	9794.53
437.796	9852.84
438.003	10166.82
438.209	10389.71
438.415	10445.06
438.622	10766.62
438.828	10970.63
439.034	10977.48
439.24	11058.01
439.447	11340.7
439.653	11254.99
439.859	11595.25
440.065	11490.28
440.271	11707.99
440.477	11693.36
440.683	12084.54
440.89	11978.46
441.096	12571.79
441.302	12277.62
441.508	12408.51
441.714	12253.93
441.92	12417.02
442.126	12474.23
442.332	12787.09
442.538	12769.32
442.744	12747.84
442.95	12871.88
443.156	12564.75
443.361	12834.3
443.567	12818.75
443.773	12653.24
443.979	12863.36
444.185	12534.95
444.391	12621.03
444.596	12545.13
444.802	12546.8
445.008	12627.7
445.214	12434.05
445.42	12409.8
445.625	12435.72
445.831	12287.99
446.037	12507.18
446.242	12254.67
446.448	11993.27
446.654	11862.94
446.859	11636.16
447.065	11594.88
447.27	11592.84
447.476	11295.16
447.682	11065.79
447.887	11188.34
448.093	11115.4
448.298	10634.26
448.504	10764.03
448.709	10432.29
448.915	10410.26
449.12	9963.18
449.325	10071.11
449.531	9917.08
449.736	9662.72
449.942	9383.55
450.147	9403.73
450.352	9338.56
450.558	8978.12
450.763	8758.56
450.968	8897.04
451.174	8579.73
451.379	8310.74
451.584	8194.67
451.789	8053.79
451.995	8073.59
452.2	7690.01
452.405	7647.62
452.61	7471.38
452.815	7641.7
453.02	7208.32
453.226	7142.41
453.431	7119.08
453.636	6834.73
453.841	6720.14
454.046	6661.45
454.251	6635.72
454.456	6391.54
454.661	6343.96
454.866	6258.43
455.071	6159.39
455.276	6019.62
455.481	5845.23
455.686	5816.91
455.891	5827.83
456.095	5665.1
456.3	5628.26
456.505	5400.93
456.71	5588.09
456.915	5336.32
457.12	5253.57
457.324	5047.34
457.529	5093.99
457.734	5036.23
457.939	4901.09
458.144	4780.57
458.348	4771.5
458.553	4821.3
458.758	4551.57
458.962	4561.2
459.167	4586.38
459.372	4479.93
459.576	4665.79
459.781	4412.91
459.985	4289.99
460.19	4303.69
460.394	4141.89
460.599	4172.8
460.803	4037.29
461.008	4128.56
461.212	3924.55
461.417	3962.5
461.621	3734.24
461.826	3768.86
462.03	3663.71
462.235	3680.18
462.439	3685.74
462.643	3819.95
462.848	3629.09
463.052	3463.4
463.256	3503.02
463.461	3329.92
463.665	3293.08
463.869	3351.58
464.074	3248.65
464.278	3186.45
464.482	3259.21
464.686	2990.77
464.89	3124.8
465.095	3284.57
465.299	2900.62
465.503	2988.92
465.707	2849.89
465.911	2860.44
466.115	2878.96
466.319	2795.1
466.523	2908.21
466.727	2734.19
466.931	2782.14
467.135	2607.56
467.339	2699.01
467.543	2642.55
467.747	2646.07
467.951	2556.84
468.155	2518.7
468.359	2677.91
468.563	2510.74
468.767	2498.34
468.971	2388.19
469.175	2439.65
469.379	2402.63
469.582	2499.26
469.786	2363.38
469.99	2359.12
470.194	2350.61
470.397	2411.14
470.601	2308.03
470.805	2485.01
471.009	2389.11
471.212	2352.09
471.416	2326.54
471.62	2370.97
471.823	2343.94
472.027	2423.92
472.23	2137.71
472.434	2491.3
472.638	2310.81
472.841	2295.07
473.045	2316.73
473.248	2308.03
473.452	2384.86
473.655	2305.44
473.859	2332.28
474.062	2329.13
474.266	2353.57
474.469	2232.68
474.672	2333.76
474.876	2319.51
475.079	2315.8
475.283	2408.37
475.486	2344.13
475.689	2312.1
475.893	2343.94
476.096	2540.55
476.299	2281.74
476.502	2346.53
476.706	2420.96
476.909	2397.26
477.112	2530.36
477.315	2418.36
477.519	2549.62
477.722	2469.27
477.925	2349.31
478.128	2416.33
478.331	2433.73
478.534	2344.5
478.737	2514.63
478.94	2445.76
479.143	2333.39
479.346	2487.97
479.549	2517.04
479.752	2442.62
479.955	2411.51
480.158	2564.61
480.361	2547.95
480.564	2553.32
480.767	2451.32
480.97	2525
481.173	2502.04
481.376	2566.83
481.579	2504.82
481.782	2554.62
481.984	2607.01
482.187	2623.85
482.39	2634.78
482.593	2642
482.796	2664.21
482.998	2636.07
483.201	2765.1
483.404	2632.92
483.606	2514.63
483.809	2807.87
484.012	2688.09
484.214	2691.61
484.417	2696.24
484.62	2679.58
484.822	2643.66
485.025	2813.05
485.227	2961.52
485.43	2800.83
485.632	2815.83
485.835	2968.93
486.037	2952.08
486.24	2873.4
486.442	3206.45
486.645	2991.7
486.847	2982.81
487.05	3062.79
487.252	3080
487.455	3053.9
487.657	3126.47
487.859	3147.58
488.062	3139.99
488.264	3179.42
488.466	3172.57
488.668	3275.13
488.871	3179.42
489.073	3326.59
489.275	3360.84
489.477	3357.88
489.68	3375.28
489.882	3452.66
490.084	3491.54
490.286	3651.3
490.488	3544.86
490.69	3550.04
490.893	3731.09
491.095	3523.57
491.297	3816.99
491.499	3846.06
491.701	3913.63
491.903	3869.01
492.105	3928.62
492.307	4012.48
492.509	4246.85
492.711	4004.89
492.913	4238.34
493.115	4205.94
493.317	4210.01
493.518	4270.74
493.72	4307.58
493.922	4391.81
494.124	4457.53
494.326	4549.91
494.528	4469.19
494.73	4667.46
494.931	4830.19
495.133	4574.71
495.335	4749.29
495.537	4820.37
495.738	5081.22
495.94	4981.8
496.142	4958.48
496.343	5066.59
496.545	5083.44
496.747	5211.18
496.948	5216.54
497.15	5391.12
497.351	5322.99
497.553	5354.28
497.755	5569.95
497.956	5703.43
498.158	5603.09
498.359	5739.9
498.561	5829.68
498.762	5761.19
498.964	5892.07
499.165	6118.29
499.366	6017.95
499.568	6079.05
499.769	6292.31
499.971	6295.83
500.172	6359.33
500.373	6389.69
500.575	6503.36
500.776	6643.5
500.977	6667.93
501.178	6869.35
501.38	6882.86
501.581	7045.4
501.782	7028
501.983	7083.54
502.185	7044.29
502.386	7262.56
502.587	7234.97
502.788	7491.56
502.989	7451.57
503.19	7756.29
503.391	7674.83
503.593	7790.91
503.794	7815.34
503.995	7906.24
504.196	8209.48
504.397	8023.43
504.598	8170.97
504.799	8225.77
505	8483.65
505.201	8530.3
505.402	8589.17
505.602	8528.82
505.803	8624.72
506.004	8703.95
506.205	8932.76
506.406	9048.47
506.607	9111.41
506.808	9221.93
507.008	9251.37
507.209	9494.62
507.41	9532.57
507.611	9397.62
507.812	9567.93
508.012	9612.92
508.213	9673.64
508.414	9799.34
508.614	9843.59
508.815	9932.26
509.016	10312.51
509.216	10239.2
509.417	10328.43
509.617	10339.35
509.818	10446.36
510.019	10587.98
510.219	10648.33
510.42	10639.81
510.62	10793.84
510.821	10834.01
511.021	11012.84
511.222	11018.21
511.422	11093
511.623	11201.11
511.823	11471.77
512.023	11263.32
512.224	11517.31
512.424	11498.06
512.624	11655.23
512.825	11594.69
513.025	11848.69
513.225	11814.81
513.426	11981.61
513.626	12034.37
513.826	12186.73
514.026	12344.64
514.227	12364.26
514.427	12376.3
514.627	12386.11
514.827	12544.94
515.027	12615.11
515.228	12807.08
515.428	12897.05
515.628	12874.28
515.828	12942.97
516.028	13058.11
516.228	13317.85
516.428	13283.41
516.628	13241.2
516.828	13215.29
517.028	13492.42
517.228	13418.18
517.428	13473.72
517.628	13551.85
517.828	13878.41
518.028	13932.65
518.228	13730.49
518.428	13750.12
518.627	13912.47
518.827	13823.24
519.027	13999.85
519.227	14290.5
519.427	14175.35
519.626	14138.7
519.826	14224.59
520.026	14310.86
520.226	14321.97
520.425	14449.71
520.625	14285.32
520.825	14322.9
521.024	14370.29
521.224	14327.52
521.424	14545.42
521.623	14538.94
521.823	14441.56
522.023	14584.66
522.222	14599.29
522.422	14587.63
522.621	14747.2
522.821	14779.79
523.02	14660.57
523.22	14729.43
523.419	14868.65
523.619	14811.44
523.818	14709.99
524.017	14833.29
524.217	14798.48
524.416	14960.28
524.616	15114.68
524.815	14809.96
525.014	15011.38
525.214	14939.37
525.413	15091.54
525.612	15177.25
525.812	15148
526.011	15024.52
526.21	15178.36
526.409	15088.76
526.608	15234.64
526.808	15178.92
527.007	15172.81
527.206	15322.58
527.405	15069.51
527.604	15239.83
527.803	15265
528.003	15215.57
528.202	15455.87
528.401	15455.5
528.6	15095.8
528.799	15312.02
528.998	15090.61
529.197	15079.51
529.396	15326.09
529.595	15307.4
529.794	15359.97
529.993	15260.19
530.192	15430.32
530.39	15246.12
530.589	15253.89
530.788	15318.69
530.987	15123.75
531.186	15322.21
531.385	15196.51
531.583	15379.6
531.782	15252.6
531.981	15119.12
532.18	15159.67
532.379	15053.77
532.577	15191.51
532.776	15125.97
532.975	15195.95
533.173	15077.47
533.372	15157.44
533.571	15053.59
533.769	15101.35
533.968	15416.62
534.166	15028.23
534.365	15060.62
534.564	15205.02
534.762	14989.35
534.961	15071.73
535.159	15164.85
535.358	15127.08
535.556	14989.72
535.755	15033.22
535.953	14959.17
536.151	15199.47
536.35	14897.34
536.548	14944.73
536.747	14921.78
536.945	14917.52
537.143	14949.92
537.342	14843.29
537.54	14932.15
537.738	15018.78
537.937	14863.46
538.135	14818.66
538.333	14777.01
538.531	14913.08
538.73	14752.57
538.928	14793.86
539.126	14710.36
539.324	14975.09
539.522	14781.27
539.72	14666.67
539.919	14727.21
540.117	14628.72
540.315	14757.94
540.513	14687.22
540.711	14586.33
540.909	14572.63
541.107	14683.71
541.305	14571.71
541.503	14666.67
541.701	14451.93
541.899	14585.03
542.097	14530.05
542.295	14376.21
542.493	14373.25
542.691	14225.33
542.888	14366.03
543.086	14254.4
543.284	14216.63
543.482	14292.91
543.68	14267.17
543.878	14354.55
544.075	14101.3
544.273	14175.17
544.471	13992.45
544.669	14084.08
544.866	14135.36
545.064	14019.66
545.262	14034.47
545.459	13990.41
545.657	14059.65
545.855	13802.88
546.052	13741.41
546.25	13899.14
546.447	13908.03
546.645	13678.29
546.842	13721.05
547.04	13603.68
547.238	13593.5
547.435	13589.61
547.633	13452.8
547.83	13611.27
548.027	13437.62
548.225	13532.41
548.422	13464.65
548.62	13141.05
548.817	13376.35
549.014	13317.66
549.212	13327.29
549.409	13328.03
549.606	13244.17
549.804	13194.74
550.001	13163.82
550.198	13182.89
550.396	12918.53
550.593	13051.82
550.79	12854.66
550.987	12894.09
551.184	12797.64
551.382	13021.64
551.579	12704.71
551.776	12580.3
551.973	12684.9
552.17	12626.96
552.367	12745.25
552.564	12511.81
552.761	12618.81
552.958	12553.28
553.155	12614.92
553.353	12574.75
553.55	12444.79
553.746	12369.45
553.943	12493.11
554.14	12441.83
554.337	12290.58
554.534	12376.48
554.731	12301.87
554.928	12347.6
555.125	12359.45
555.322	12177.47
555.519	11927.36
555.715	12019.37
555.912	11946.62
556.109	11901.63
556.306	11832.21
556.503	11875.34
556.699	11858.87
556.896	11792.96
557.093	11753.53
557.289	11699.66
557.486	11581.92
557.683	11802.03
557.879	11481.4
558.076	11402.16
558.273	11420.12
558.469	11374.76
558.666	11307.38
558.862	11270.72
559.059	11175.2
559.255	11240.73
559.452	11111.51
559.648	10984.89
559.845	11014.88
560.041	10914.35
560.238	11080.23
560.434	10865.85
560.631	10729.97
560.827	10807.35
561.023	10611.86
561.22	10631.67
561.416	10653.14
561.612	10518.37
561.809	10384.34
562.005	10389.89
562.201	10395.63
562.398	10320.84
562.594	10212.36
562.79	10285.48
562.986	10269.19
563.182	10191.99
563.379	10056.3
563.575	9997.43
563.771	10008.16
563.967	10102.58
564.163	9817.48
564.359	9883.94
564.555	10078.33
564.751	9694.37
564.947	9700.11
565.144	9652.35
565.34	9682.34
565.536	9699.19
565.732	9558.86
565.928	9482.22
566.123	9385.4
566.319	9385.03
566.515	9497.03
566.711	9272.66
566.907	9330.05
567.103	9194.9
567.299	8999.78
567.495	9173.98
567.691	8922.21
567.886	9129.55
568.082	8952.39
568.278	9003.3
568.474	9048.1
568.669	8918.33
568.865	8774.67
569.061	8700.62
569.257	8774.67
569.452	8643.23
569.648	8488.09
569.844	8555.11
570.039	8467.73
570.235	8495.13
570.43	8421.82
570.626	8422.19
570.822	8516.42
571.017	8438.48
571.213	8166.71
571.408	8125.06
571.604	8158.01
571.799	8012.69
571.995	8036.75
572.19	7903.83
572.385	7862
572.581	7904.02
572.776	7942.9
572.972	7878.84
573.167	7646.51
573.362	7702.05
573.558	7702.97
573.753	7575.24
573.948	7567.83
574.144	7518.96
574.339	7494.52
574.534	7321.24
574.729	7284.59
574.925	7367.89
575.12	7284.4
575.315	7110.2
575.51	7221.27
575.705	7022.08
575.9	7017.82
576.096	7040.22
576.291	6874.53
576.486	6945.25
576.681	6881.01
576.876	6894.53
577.071	6713.47
577.266	6690.89
577.461	6710.51
577.656	6667.19
577.851	6601.47
578.046	6591.29
578.241	6542.05
578.436	6439.67
578.631	6441.89
578.826	6513.35
579.021	6224.93
579.215	6300.46
579.41	6447.63
579.605	6170.87
579.8	6114.96
579.995	6159.58
580.189	6016.66
580.384	5975.01
580.579	5994.07
580.774	5829.13
580.968	5825.42
581.163	5837.27
581.358	5831.35
581.552	5680.84
581.747	5671.03
581.942	5687.32
582.136	5638.63
582.331	5431.48
582.526	5470.35
582.72	5422.22
582.915	5409.82
583.109	5348.35
583.304	5315.22
583.498	5357.05
583.693	5228.39
583.887	5237.09
584.082	5044.93
584.276	5279.3
584.471	4837.04
584.665	4934.23
584.859	4792.42
585.054	4778.91
585.248	4813.89
585.442	4777.8
585.637	4745.03
585.831	4655.61
586.025	4681.71
586.22	4576.19
586.414	4491.41
586.608	4434.39
586.802	4317.02
586.997	4333.86
587.191	4282.4
587.385	4254.63
587.579	4195.57
587.773	4256.48
587.967	4188.17
588.162	4164.47
588.356	4023.41
588.55	4043.22
588.744	3893.63
588.938	3923.07
589.132	3838.65
589.326	3865.31
589.52	3754.97
589.714	3668.89
589.908	3714.8
590.102	3702.58
590.296	3613.72
590.49	3572.07
590.684	3550.04
590.877	3530.6
591.071	3438.04
591.265	3415.27
591.459	3382.69
591.653	3240.14
591.847	3280.13
592.04	3198.86
592.234	3204.59
592.428	3043.72
592.622	3113.14
592.815	3084.26
593.009	3006.88
593.203	3160.72
593.397	2942.09
593.59	3000.96
593.784	2885.62
593.977	2822.12
594.171	2768.81
594.365	2833.6
594.558	2801.94
594.752	2764.36
594.945	2655.7
595.139	2640.7
595.332	2554.62
595.526	2533.51
595.719	2504.08
595.913	2564.8
596.106	2480.2
596.3	2389.67
596.493	2430.95
596.687	2374.86
596.88	2365.23
597.073	2353.94
597.267	2262.3
597.46	2219.72
597.653	2267.3
597.847	2134.01
598.04	2170.66
598.233	2230.65
598.426	1914.45
598.62	2015.34
598.813	1911.3
599.006	2049.96
599.199	1899.46
599.392	1922.04
599.586	1920.93
599.779	1733.77
599.972	1717.11
600.165	1819.85
600.358	1698.59
600.551	1839.66
600.744	1648.05
600.937	1673.97
601.13	1624.54
601.323	1565.67
601.516	1529.76
601.709	1564.56
601.902	1534.94
602.095	1521.8
602.288	1521.8
602.481	1402.02
602.674	1366.85
602.867	1469.22
603.06	1434.05
603.252	1172.84
603.445	1416.09
603.638	1297.24
603.831	1346.3
604.024	1129.7
604.216	1249.29
604.409	1130.26
604.602	986.23
604.795	1212.45
604.987	1118.41
605.18	1134.14
605.373	1166.91
605.565	1106.38
605.758	1050.84
605.951	944.02
606.143	1004
606.336	1073.42
606.528	1010.48
606.721	889.22
606.913	922.73
607.106	992.15
607.298	962.35
607.491	904.77
607.683	808.32
607.876	780.92
608.068	717.61
608.261	792.03
608.453	838.31
608.646	809.8
608.838	715.02
609.03	799.44
609.223	647.82
609.415	581.73
609.607	641.52
609.8	594.32
609.992	575.99
610.184	663.74
610.376	648.74
610.569	654.85
610.761	496.57
610.953	507.86
611.145	643.37
611.337	576.17
611.529	615.79
611.722	567.66
611.914	449.18
612.106	452.32
612.298	449.55
612.49	571.55
612.682	745.93
612.874	661.89
613.066	371.61
613.258	498.24
613.45	440.29
613.642	488.61
613.834	465.1
614.026	405.49
614.218	471.02
614.41	424.93
614.602	411.6
614.793	524.15
614.985	460.66
615.177	380.68
615.369	440.85
615.561	296.82
615.753	471.76
615.944	472.13
616.136	367.91
616.328	241.47
616.52	280.16
616.711	229.62
616.903	337.18
617.095	375.5
617.286	233.51
617.478	318.66
617.67	182.23
617.861	320.14
618.053	327.36
618.244	210.18
618.436	183.34
618.627	144.46
618.819	214.44
619.01	325.51
619.202	134.46
619.393	276.64
619.585	220.92
619.776	292.19
619.968	206.11
620.159	237.76
620.351	168.71
620.542	123.17
620.733	219.62
620.925	121.87
621.116	201.48
621.307	169.27
621.499	237.76
621.69	263.13
621.881	135.39
622.072	222.4
622.264	111.51
622.455	209.62
622.646	277.01
622.837	122.8
623.028	284.42
623.22	168.34
623.411	332.36
623.602	161.31
623.793	198.89
623.984	167.23
624.175	232.95
624.366	247.39
624.557	181.86
624.748	72.82
624.939	160.94
625.13	259.61
625.321	94.11
625.512	95.77
625.703	136.87
625.894	178.15
626.085	57.45
626.276	59.3
626.467	117.8
626.658	157.79
626.848	184.08
627.039	69.3
627.23	58.75
627.421	133.35
627.612	111.69
627.802	244.43
627.993	175.93
628.184	327.55
628.375	230.36
628.565	224.99
628.756	13.02
628.947	93.74
629.137	244.06
629.328	89.48
629.519	28.57
629.709	183.15
629.9	-4.75
630.09	78
630.281	89.29
630.471	76.33
630.662	50.97
630.852	25.42
631.043	134.65
631.233	192.04
631.424	168.16
631.614	97.62
631.805	225.18
631.995	237.76
632.185	100.96
632.376	153.16
632.566	140.2
632.756	107.81
632.947	66.34
633.137	-11.23
633.327	261.46
633.518	127.06
633.708	186.48
633.898	212.22
634.088	162.6
634.279	32.27
634.469	41.9
634.659	122.43
634.849	134.28
635.039	65.23
635.229	174.82
635.42	46.9
635.61	100.77
635.8	-3.09
635.99	123.36
636.18	110.21
636.37	82.81
636.56	202.59
636.75	175.19
636.94	92.25
637.13	74.11
637.32	209.07
637.51	-3.09
637.7	130.58
637.89	140.2
638.079	166.12
638.269	43.57
638.459	31.16
638.649	52.82
638.839	311.44
639.029	168.16
639.218	136.87
639.408	54.12
639.598	138.72
639.788	175.01
639.977	68.56
640.167	90.03
640.357	72.26
640.546	-1.23
640.736	72.45
640.926	196.67
641.115	141.87
641.305	98.73
641.495	130.76
641.684	98.55
641.874	120.39
642.063	53.19
642.253	155.75
642.442	180.93
642.632	179.26
642.821	8.76
643.011	32.27
643.2	110.58
643.39	89.85
643.579	150.94
643.768	106.32
643.958	121.69
644.147	68.37
644.336	38.94
644.526	150.38
644.715	54.49
644.904	162.97
645.094	214.62
645.283	-3.64
645.472	170.93
645.661	100.96
645.851	23.94
646.04	95.96
646.229	-22.89
646.418	127.43
646.607	117.06
646.796	45.97
646.986	108.36
647.175	128.91
647.364	211.48
647.553	190.56
647.742	73.37
647.931	79.3
648.12	22.83
648.309	35.79
648.498	83.55
648.687	235.54
648.876	-9.56
649.065	57.64
649.254	65.6
649.443	4.69
649.632	237.39
649.82	100.59
650.009	57.82
650.198	-82.13
650.387	74.48
650.576	45.6
650.765	128.72
650.953	68.74
651.142	19.69
651.331	77.26
651.52	80.96
651.708	177.6
651.897	160.57
652.086	-4.2
652.274	-31.97
652.463	88.92
652.652	116.32
652.84	34.12
653.029	121.13
653.217	105.4
653.406	141.68
653.594	90.4
653.783	137.8
653.972	83.37
654.16	105.21
654.349	73.56
654.537	118.54
654.725	235.36
654.914	106.69
655.102	-4.38
655.291	66.15
655.479	20.61
655.667	63.93
655.856	45.23
656.044	49.49
656.232	158.71
656.421	180.56
656.609	9.69
656.797	151.12
656.986	68.56
657.174	116.88
657.362	-23.63
657.55	101.14
657.738	99.84
657.927	90.03
658.115	72.63
658.303	38.01
658.491	160.38
658.679	57.64
658.867	53.38
659.055	-34.74
659.243	103.92
659.431	31.72
659.619	54.12
659.807	110.4
659.995	173.71
660.183	92.07
660.371	-14.19
660.559	227.03
660.747	41.16
660.935	78.18
661.123	-54.74
661.311	63
661.499	-28.26
661.687	32.09
661.875	127.98
662.062	131.32
662.25	72.82
662.438	106.88
662.626	105.4
662.813	81.15
663.001	61.89
663.189	-55.66
663.377	-11.6
663.564	37.09
663.752	105.77
663.94	35.98
664.127	19.31
664.315	115.95
664.502	18.94
664.69	165.38
664.878	81.52
665.065	91.14
665.253	62.82
665.44	123.17
665.628	58.56
665.815	127.43
666.003	160.38
666.19	92.44
666.378	83.18
666.565	95.03
666.752	219.81
666.94	126.69
667.127	125.58
667.315	149.83
667.502	65.97
667.689	-54.92
667.877	-17.16
668.064	251.09
668.251	18.02
668.438	74.48
668.626	4.69
668.813	81.52
669	54.3
669.187	-1.6
669.374	38.38
669.562	-31.78
669.749	198.7
669.936	107.06
670.123	-14.01
670.31	174.08
670.497	58.19
670.684	113.73
670.871	16.17
671.058	132.24
671.245	90.4
671.432	150.57
671.619	24.31
671.806	145.2
671.993	237.58
672.18	84.29
672.367	-9.01
672.554	13.02
672.741	51.53
672.928	111.88
673.115	110.4
673.302	96.88
673.488	101.51
673.675	81.89
673.862	4.69
674.049	145.2
674.235	113.54
674.422	19.31
674.609	94.66
674.796	86.89
674.982	54.12
675.169	15.06
675.356	118.73
675.542	149.83
675.729	132.98
675.916	78.37
676.102	213.14
676.289	203.89
676.475	72.63
676.662	61.52
676.848	79.3
677.035	87.44
677.221	80.22
677.408	126.32
677.594	158.71
677.781	164.27
677.967	127.61
678.154	26.16
678.34	91.88
678.526	23.39
678.713	115.21
678.899	40.6
679.085	112.43
679.272	28.39
679.458	110.58
679.644	115.21
679.831	-58.07
680.017	179.08
680.203	127.61
680.389	129.28
680.576	205.18
680.762	10.06
680.948	141.5
681.134	73.56
681.32	38.57
681.506	131.32
681.692	84.85
681.879	93.18
682.065	78.18
682.251	191.67
682.437	-3.64
682.623	124.1
682.809	-40.67
682.995	-78.43
683.181	173.34
683.367	205.55
683.553	-82.69
683.739	76.7
683.924	110.4
684.11	72.82
684.296	160.01
684.482	249.43
684.668	78.56
684.854	36.35
685.04	101.7
685.225	72.63
685.411	136.87
685.597	28.2
685.783	68.93
685.968	-3.27
686.154	86.33
686.34	0.43
686.526	0.8
686.711	-19.01
686.897	241.47
687.083	13.95
687.268	184.63
687.454	51.34
687.639	124.47
687.825	74.67
688.01	205
688.196	107.62
688.382	191.3
688.567	203.7
688.752	214.44
688.938	-43.81
689.123	287.19
689.309	123.54
689.494	-69.55
689.68	170.01
689.865	241.28
690.05	127.8
690.236	137.98
690.421	31.35
690.606	-73.06
690.792	64.86
690.977	53.19
691.162	95.22
691.348	110.21
691.533	0.06
691.718	-55.48
691.903	42.46
692.089	49.49
692.274	3.76
692.459	-6.42
692.644	137.8
692.829	222.21
693.014	73.93
693.199	84.11
693.384	19.69
693.569	168.53
693.755	142.98
693.94	117.62
694.125	189.08
694.31	-26.6
694.495	56.9
694.68	-46.96
694.864	123.73
695.049	-6.05
695.234	15.98
695.419	227.4
695.604	90.4
695.789	97.99
695.974	140.57
696.159	19.31
696.344	113.17
696.528	106.14
696.713	30.05
696.898	176.86
697.083	125.76
697.267	22.46
697.452	24.31
697.637	57.45
697.822	72.45
698.006	110.77
698.191	177.04
698.375	131.32
698.56	152.79
698.745	124.1
698.929	85.03
699.114	112.8
699.298	127.98
699.483	212.77
699.668	28.57
699.852	-47.7
700.037	60.41
700.221	-36.41
700.405	247.58
700.59	187.59
700.774	63.56
700.959	14.32
701.143	95.4
701.328	149.27
701.512	-15.3
701.696	4.87
701.881	126.13
702.065	23.02
702.249	21.72
702.433	210.55
702.618	80.04
702.802	130.21
702.986	112.43
703.17	891.44
703.355	34.12
703.539	-17.16
703.723	130.76
703.907	76.7
704.091	224.8
704.275	70.04
704.46	12.28
704.644	164.82
704.828	28.39
705.012	1.73
705.196	110.21
705.38	-27.34
705.564	294.23
705.748	58.56
705.932	166.68
706.116	74.48
706.3	65.6
706.484	60.6
706.668	173.15
706.851	153.16
707.035	234.25
707.219	176.3
707.403	117.43
707.587	40.23
707.771	181.12
707.954	43.2
708.138	184.08
708.322	79.48
708.506	5.06
708.689	71.34
708.873	-35.48
709.057	77.07
709.241	245.54
709.424	92.62
709.608	150.94
709.792	-11.79
709.975	60.97
710.159	-20.3
710.342	77.26
710.526	169.64
710.709	123.73
710.893	86.7
711.077	98.36
711.26	164.08
711.443	80.78
711.627	221.66
711.81	244.24
711.994	45.23
712.177	80.41
712.361	134.09
712.544	38.01
712.727	100.03
712.911	132.61
713.094	56.34
713.277	118.91
713.461	134.65
713.644	52.64
713.827	224.25
714.011	5.25
714.194	60.04
714.377	94.11
714.56	177.04
714.743	146.87
714.927	139.28
715.11	122.62
715.293	6.54
715.476	159.46
715.659	157.6
715.842	115.21
716.025	-3.46
716.208	68.93
716.391	202.22
716.575	146.31
716.758	189.45
716.941	73.56
717.124	120.02
717.306	133.54
717.489	-39.19
717.672	40.23
717.855	121.5
718.038	6.73
718.221	156.49
718.404	-36.59
718.587	-2.34
718.77	21.17
718.952	77.26
719.135	117.25
719.318	62.08
719.501	40.05
719.684	99.66
719.866	148.9
720.049	103.55
720.232	102.62
720.414	212.4
720.597	186.67
720.78	103.73
720.962	88.18
721.145	136.13
721.328	97.25
721.51	76.7
721.693	64.49
721.875	58.19
722.058	-40.48
722.24	109.1
722.423	222.4
722.605	42.64
722.788	51.9
722.97	137.43
723.153	41.72
723.335	-14.38
723.518	48.19
723.7	177.41
723.882	67.45
724.065	111.88
724.247	26.53
724.429	83.74
724.612	134.46
724.794	-22.71
724.976	81.15
725.159	97.81
725.341	105.95
725.523	45.05
725.705	80.41
725.888	285.9
726.07	50.79
726.252	-47.7
726.434	25.61
726.616	70.78
726.798	-59.18
726.98	83.74
727.162	48.19
727.345	172.78
727.527	53.19
727.709	13.76
727.891	132.06
728.073	98.73
728.255	15.24
728.437	199.44
728.619	13.21
728.801	97.99
728.982	19.87
729.164	70.22
729.346	106.69
729.528	136.31
729.71	-37.52
729.892	22.09
730.074	132.24
730.255	148.72
730.437	56.15
730.619	86.52
730.801	329.77
730.983	62.82
731.164	149.46
731.346	192.59
731.528	70.78
731.709	107.25
731.891	-12.34
732.073	39.49
732.254	147.24
732.436	56.9
732.617	-11.97
732.799	144.83
732.981	72.82
733.162	59.12
733.344	-20.3
733.525	71.15
733.707	145.02
733.888	52.27
734.07	59.12
734.251	40.6
734.433	62.45
734.614	64.86
734.795	126.87
734.977	156.49
735.158	56.15
735.34	179.26
735.521	47.08
735.702	-3.83
735.883	95.96
736.065	77.44
736.246	103.18
736.427	141.68
736.609	175.38
736.79	41.53
736.971	-0.49
737.152	30.61
737.333	101.33
737.514	61.15
737.696	208.7
737.877	41.34
738.058	27.09
738.239	46.53
738.42	113.36
738.601	51.9
738.782	29.13
738.963	163.53
739.144	47.08
739.325	146.31
739.506	78.93
739.687	52.82
739.868	241.65
740.049	101.7
740.23	118.36
740.411	160.38
740.592	105.21
740.773	-26.97
740.953	95.77
741.134	95.03
741.315	46.71
741.496	105.58
741.677	56.9
741.857	127.61
742.038	-43.07
742.219	29.13
742.4	44.49
742.58	-23.45
742.761	56.15
742.942	36.35
743.122	32.46
743.303	42.27
743.484	9.32
743.664	71.15
743.845	107.06
744.025	103.36
744.206	100.96
744.386	86.33
744.567	-29.93
744.748	131.13
744.928	260.35
745.108	151.12
745.289	49.49
745.469	51.53
745.65	212.77
745.83	13.39
746.011	94.48
746.191	165.38
746.371	-16.6
746.552	103.55
746.732	76.89
746.912	198.7
747.093	117.62
747.273	94.85
747.453	20.61
747.633	201.11
747.814	-30.11
747.994	105.03
748.174	161.12
748.354	79.11
748.534	61.71
748.715	63
748.895	162.79
749.075	-9.38
749.255	223.69
749.435	22.46
749.615	141.87
749.795	94.48
749.975	80.22
750.155	87.26
750.335	85.03
750.515	96.7
750.695	106.51
750.875	45.97
751.055	114.28
751.235	39.68
751.415	102.07
751.595	25.98
751.775	171.49
751.954	78.74
752.134	164.27
752.314	173.15
752.494	143.53
752.674	14.32
752.854	157.23
753.033	32.46
753.213	10.98
753.393	10.61
753.572	99.66
753.752	25.79
753.932	63.93
754.111	32.64
754.291	92.62
754.471	56.34
754.65	74.3
754.83	60.04
755.01	74.85
755.189	37.46
755.369	18.2
755.548	113.36
755.728	87.63
755.907	94.29
756.087	43.01
756.266	215.55
756.446	-34.19
756.625	51.34
756.804	383.09
756.984	23.2
757.163	39.86
757.343	69.85
757.522	-67.32
757.701	47.64
757.881	171.67
758.06	0.25
758.239	20.43
758.418	151.12
758.598	171.86
758.777	85.4
758.956	91.7
759.135	63.37
759.315	86.15
759.494	279.79
759.673	114.47
759.852	11.54
760.031	16.17
760.21	28.57
760.389	-61.22
760.568	41.16
760.748	111.88
760.927	24.68
761.106	92.81
761.285	80.22
761.464	21.17
761.643	127.98
761.822	150.57
762	144.83
762.179	-1.42
762.358	70.04
762.537	72.63
762.716	51.9
762.895	23.02
763.074	92.81
763.253	145.76
763.431	-26.78
763.61	104.66
763.789	64.12
763.968	12.47
764.147	84.29
764.325	99.29
764.504	43.75
764.683	14.69
764.861	109.84
765.04	78.93
765.219	48.56
765.397	63.37
765.576	166.12
765.755	129.09
765.933	34.68
766.112	144.09
766.29	54.49
766.469	6.91
766.647	79.85
766.826	95.4
767.004	108.55
767.183	116.32
767.361	120.39
767.54	267.57
767.718	217.03
767.897	40.6
768.075	21.35
768.253	14.69
768.432	140.02
768.61	55.41
768.788	45.23
768.967	112.06
769.145	38.94
769.323	147.79
769.501	50.79
769.68	51.9
769.858	113.36
770.036	-18.08
770.214	171.49
770.393	40.97
770.571	56.34
770.749	-10.31
770.927	-66.95
771.105	188.52
771.283	16.35
771.461	77.81
771.639	144.27
771.817	23.76
771.995	16.91
772.173	145.94
772.351	67.08
772.529	155.01
772.707	219.25
772.885	48.93
773.063	250.35
773.241	203.15
773.419	56.34
773.597	107.99
773.775	27.28
773.953	46.9
774.131	86.89
774.308	198.89
774.486	155.01
774.664	111.32
774.842	73.37
775.02	191.67
775.197	196.48
775.375	156.86
775.553	35.98
775.73	33.57
775.908	149.27
776.086	152.98
776.263	107.99
776.441	187.22
776.619	-53.81
776.796	61.34
776.974	142.24
777.151	31.9
777.329	42.46
777.506	172.97
777.684	45.79
777.861	134.46
778.039	135.39
778.216	188.52
778.394	183.15
778.571	155.01
778.749	-13.08
778.926	69.11
779.103	49.12
779.281	120.02
779.458	207.03
779.635	143.9
779.813	136.31
779.99	43.57
780.167	30.61
780.345	245.91
780.522	245.17
780.699	37.27
780.876	50.79
781.054	123.73
781.231	50.23
781.408	154.64
781.585	102.99
781.762	38.94
781.939	71.89
782.116	95.22
782.294	154.09
782.471	11.72
782.648	57.08
782.825	46.16
783.002	96.88
783.179	72.26
783.356	22.65
783.533	58.01
783.71	66.52
783.887	156.31
784.064	139.09
784.24	59.86
784.417	34.5
784.594	84.66
784.771	92.44
784.948	189.82
785.125	-6.05
785.302	98.18
785.478	333.84
785.655	48.93
785.832	-28.82
786.009	123.54
786.185	129.09
786.362	188.15
786.539	25.79
786.715	359.21
786.892	115.77
787.069	261.27
787.245	124.1
787.422	96.88
787.599	154.46
787.775	124.28
787.952	60.23
788.128	183.52
788.305	129.84
788.481	73.56
788.658	20.61
788.834	135.94
789.011	29.5
789.187	184.82
789.364	23.2
789.54	228.14
789.717	177.97
789.893	-30.11
790.069	115.21
790.246	50.23
790.422	100.96
790.598	87.44
790.775	114.1
790.951	181.67
791.127	75.78
791.304	66.89
791.48	15.61
791.656	102.62
791.832	120.21
792.008	84.48
792.185	92.07
792.361	112.43
792.537	93.18
792.713	155.57
792.889	123.17
793.065	175.19
793.241	98.55
793.417	108.55
793.593	15.24
793.769	119.84
793.945	5.8
794.121	62.08
794.297	94.66
794.473	76.15
794.649	212.59
794.825	52.82
795.001	105.58
795.177	-28.82
795.353	160.38
795.529	133.35
795.705	127.98
795.881	96.51
796.056	136.31
796.232	89.11
796.408	207.4
796.584	76.7
796.76	105.03
796.935	46.71
797.111	69.11
797.287	27.83
797.462	178.34
797.638	181.12
797.814	38.57
797.989	79.3
798.165	153.16
798.341	322.37
798.516	87.07
798.692	155.75
798.867	171.86
799.043	135.02
799.218	217.77
799.394	85.03
799.569	348.1
799.745	133.72
799.92	109.1
800.096	145.02
800.271	154.46
800.447	347.91
800.622	140.57
800.797	6.54
800.973	-16.97
801.148	130.02
801.323	182.6
801.499	16.35
801.674	36.53
801.849	211.85
802.025	174.82
802.2	274.79
802.375	182.78
802.55	199.07
802.725	36.35
802.901	86.7
803.076	132.61
803.251	77.81
803.426	81.89
803.601	189.08
803.776	27.65
803.951	19.69
804.127	64.67
804.302	83.18
804.477	92.81
804.652	167.05
804.827	16.72
805.002	24.13
805.177	98.92
805.352	280.16
805.526	126.32
805.701	257.94
805.876	154.64
806.051	53.75
806.226	140.02
806.401	190
806.576	126.87
806.751	90.03
806.925	65.6
807.1	115.4
807.275	34.68
807.45	80.41
807.625	435.48
807.799	175.38
807.974	96.88
808.149	18.76
808.323	107.43
808.498	147.79
808.673	121.5
808.847	-22.15
809.022	112.06
809.197	171.49
809.371	55.41
809.546	164.08
809.72	60.97
809.895	112.43
810.069	-65.47
810.244	249.24
810.418	14.5
810.593	193.52
810.767	169.45
810.942	170.19
811.116	282.93
811.29	129.84
811.465	64.12
811.639	149.83
811.814	247.02
811.988	257.76
812.162	187.41
812.337	53.01
812.511	176.3
812.685	143.16
812.859	104.1
813.034	126.5
813.208	147.42
813.382	25.98
813.556	159.27
813.73	203.89
813.905	41.34
814.079	81.15
814.253	156.31
814.427	252.94
814.601	14.87
814.775	103.36
814.949	87.07
815.123	125.39
815.297	35.98
815.471	29.68
815.645	48.19
815.819	114.28
815.993	95.59
816.167	63.56
816.341	75.78
816.515	131.5
816.689	-34.93
816.863	99.66
817.037	97.44
817.21	143.53
817.384	54.12
817.558	125.95
817.732	249.61
817.906	90.59
818.079	-37.7
818.253	175.56
818.427	6.17
818.601	99.84
818.774	205.74
818.948	81.89
819.122	220.55
819.295	134.65
819.469	76.33
819.643	104.47
819.816	52.08
819.99	132.61
820.163	57.27
820.337	51.34
820.511	207.22
820.684	149.27
820.858	192.04
821.031	15.06
821.205	86.89
821.378	138.35
821.551	141.13
821.725	133.72
821.898	66.52
822.072	137.98
822.245	214.62
822.418	149.64
822.592	5.62
822.765	28.94
822.938	215.36
823.112	33.2
823.285	165.01
823.458	100.4
823.631	90.96
823.805	104.29
823.978	158.16
824.151	146.87
824.324	205.92
824.497	158.53
824.671	119.84
824.844	142.79
825.017	102.62
825.19	-84.91
825.363	-57.33
825.536	95.22
825.709	85.4
825.882	87.44
826.055	85.96
826.228	-49.18
826.401	76.7
826.574	63
826.747	68.93
826.92	145.2
827.093	113.36
827.266	108.18
827.439	94.66
827.612	62.08
827.785	66.89
827.957	86.15
828.13	87.07
828.303	100.59
828.476	99.84
828.649	28.94
828.821	189.08
828.994	133.91
829.167	40.79
829.34	244.61
829.512	148.72
829.685	212.4
829.858	149.09
830.03	162.23
830.203	199.44
830.375	283.86
830.548	143.16
830.721	118.36
830.893	73.56
831.066	110.95
831.238	121.87
831.411	239.61
831.583	121.5
831.756	172.04
831.928	47.45
832.101	99.84
832.273	102.44
832.446	75.78
832.618	146.5
832.79	134.28
832.963	-14.93
833.135	86.15
833.307	86.52
833.48	162.23
833.652	67.63
833.824	264.79
833.997	116.88
834.169	143.16
834.341	109.66
834.513	29.13
834.686	74.67
834.858	126.13
835.03	125.21
835.202	27.09
835.374	19.69
835.546	164.45
835.718	26.9
835.891	116.69
836.063	55.41
836.235	114.1
836.407	58.38
836.579	180.93
836.751	-24.19
836.923	99.84
837.095	157.23
837.267	102.62
837.439	128.72
837.611	43.01
837.782	81.89
837.954	178.34
838.126	111.69
838.298	184.63
838.47	202.4
838.642	27.09
838.814	180.37
838.985	59.3
839.157	25.61
839.329	0.99
839.501	214.07
839.672	15.8
839.844	207.03
840.016	44.86
840.188	183.34
840.359	137.61
840.531	77.07
840.702	13.58
840.874	284.6
841.046	40.79
841.217	69.48
841.389	109.66
841.56	105.4
841.732	-23.45
841.903	101.14
842.075	20.06
842.246	78
842.418	201.48
842.589	87.81
842.761	95.22
842.932	100.21
843.104	218.88
843.275	128.35
843.446	10.8
843.618	44.86
843.789	158.71
843.96	-65.84
844.132	96.33
844.303	127.24
844.474	46.71
844.646	113.54
844.817	-23.45
844.988	63.19
845.159	254.42
845.331	184.45
845.502	-8.27
845.673	62.45
845.844	-82.87
846.015	176.12
846.186	33.57
846.357	79.48
846.528	101.14
846.7	13.76
846.871	63.56
847.042	60.78
847.213	136.68
847.384	431.59
847.555	180.56
847.726	31.35
847.897	165.75
848.067	-51.96
848.238	172.41
848.409	70.04
848.58	153.16
848.751	120.39
848.922	87.44
849.093	134.46
849.264	79.11
849.434	177.04
849.605	6.17
849.776	48.75
849.947	-10.86
850.117	57.45
850.288	181.12
850.459	24.87
850.63	146.87
850.8	162.05
850.971	239.8
851.142	33.2
851.312	-112.49
851.483	-14.38
851.653	86.52
851.824	106.88
851.995	26.16
852.165	195.93
852.336	74.3
852.506	207.77
852.677	154.64
852.847	109.66
853.018	113.73
853.188	46.16
853.358	165.93
853.529	196.85
853.699	131.5
853.87	98.55
854.04	-47.33
854.21	80.41
854.381	54.86
854.551	197.78
854.721	43.01
854.892	115.4
855.062	-39.19
855.232	46.71
855.402	135.39
855.573	102.99
855.743	120.76
855.913	34.5
856.083	56.53
856.253	107.81
856.423	-12.9
856.594	54.49
856.764	116.51
856.934	95.4
857.104	60.23
857.274	182.97
857.444	41.53
857.614	51.34
857.784	110.4
857.954	-8.27
858.124	26.16
858.294	-24.19
858.464	188.33
858.634	17.83
858.804	135.02
858.974	-9.75
859.143	-0.49
859.313	-15.3
859.483	108.73
859.653	-24
859.823	78.18
859.993	13.58
860.162	147.24
860.332	133.35
860.502	31.9
860.672	118.54
860.841	159.27
861.011	87.07
861.181	-7.71
861.35	237.21
861.52	74.3
861.69	81.15
861.859	99.1
862.029	54.49
862.198	63.93
862.368	77.44
862.538	64.3
862.707	89.11
862.877	128.54
863.046	126.87
863.216	-17.53
863.385	97.81
863.555	111.88
863.724	218.7
863.893	94.48
864.063	249.06
864.232	248.13
864.402	38.94
864.571	35.05
864.74	62.82
864.91	-20.49
865.079	118.54
865.248	104.1
865.418	142.79
865.587	100.59
865.756	94.85
865.925	103.36
866.094	271.46
866.264	160.38
866.433	35.42
866.602	156.86
866.771	1.36
866.94	100.96
867.109	10.24
867.278	79.67
867.448	73.19
867.617	11.35
867.786	157.05
867.955	38.57
868.124	-3.46
868.293	96.88
868.462	28.2
868.631	161.12
868.8	208.51
868.969	68.56
869.137	161.68
869.306	98.92
869.475	128.35
869.644	8.95
869.813	-3.27
869.982	105.03
870.151	53.01
870.319	44.49
870.488	69.3
870.657	96.88
870.826	15.8
870.995	11.91
871.163	74.67
871.332	79.85
871.501	92.07
871.669	17.46
871.838	150.94
872.007	136.31
872.175	102.44
872.344	18.94
872.512	-86.95
872.681	52.45
872.85	155.2
873.018	61.34
873.187	-13.64
873.355	189.26
873.524	26.9
873.692	95.4
873.861	98.73
874.029	49.49
874.197	151.87
874.366	179.63
874.534	61.89
874.703	15.43
874.871	87.26
875.039	16.54
875.208	14.87
875.376	138.17
875.544	170.93
875.713	108.18
875.881	67.82
876.049	145.2
876.217	124.65
876.386	107.99
876.554	107.62
876.722	151.87
876.89	207.4
877.058	96.51
877.226	94.66
877.395	3.76
877.563	56.34
877.731	16.17
877.899	37.09
878.067	31.9
878.235	30.42
878.403	15.98
878.571	62.26
878.739	64.49
878.907	192.59
879.075	143.35
879.243	76.89
879.411	-13.82
879.579	16.17
879.747	59.3
879.914	41.9
880.082	15.24
880.25	20.8
880.418	116.32
880.586	-18.08
880.754	158.34
880.921	119.28
881.089	4.69
881.257	107.43
881.425	22.83
881.592	85.4
881.76	52.08
881.928	210.74
882.095	91.33
882.263	143.16
882.431	25.05
882.598	288.3
882.766	16.91
882.933	60.04
883.101	-25.49
883.269	31.16
883.436	110.77
883.604	90.03
883.771	223.69
883.939	-7.16
884.106	-40.48
884.273	133.54
884.441	75.96
884.608	28.02
884.776	151.12
884.943	209.62
885.11	-12.9
885.278	9.5
885.445	64.49
885.613	98.55
885.78	30.98
885.947	37.27
886.114	153.35
886.282	147.98
886.449	45.42
886.616	126.69
886.783	11.54
886.951	65.6
887.118	-7.53
887.285	188.71
887.452	25.05
887.619	41.16
887.786	-102.5
887.953	17.09
888.12	42.27
888.287	122.43
888.455	137.8
888.622	47.27
888.789	56.71
888.956	59.67
889.123	19.5
889.29	8.02
889.456	50.97
889.623	44.86
889.79	84.66
889.957	148.72
890.124	74.67
890.291	110.58
890.458	74.48
890.625	211.85
890.791	90.4
890.958	29.68
891.125	161.49
891.292	92.62
891.459	63
891.625	100.03
891.792	117.25
891.959	-72.51
892.125	-17.16
892.292	-14.75
892.459	75.59
892.625	156.49
892.792	163.9
892.959	-24.75
893.125	297.37
893.292	-44
893.458	128.72
893.625	143.9
893.791	106.69
893.958	26.9
894.124	144.46
894.291	9.32
894.457	79.67
894.624	94.66
894.79	65.78
894.957	69.48
895.123	105.77
895.289	108.73
895.456	211.48
895.622	66.15
895.788	71.52
895.955	35.24
896.121	160.2
896.287	304.59
896.454	49.68
896.62	64.67
896.786	31.53
896.952	119.28
897.119	135.57
897.285	123.73
897.451	15.8
897.617	124.28
897.783	105.58
897.949	25.42
898.115	85.96
898.281	18.94
898.448	178.52
898.614	19.69
898.78	79.11
898.946	109.84
899.112	222.21
899.278	-13.08
899.444	33.75
899.61	196.11
899.775	66.15
899.941	91.51
900.107	35.05
900.273	60.6
900.439	88.92
900.605	78.37
900.771	107.81
900.937	112.8
901.102	180.74
901.268	139.28
901.434	42.09
901.6	133.91
901.766	133.35
901.931	196.85
902.097	98.18
902.263	145.76
902.428	150.01
902.594	-12.53
902.76	69.85
902.925	33.2
903.091	168.53
903.256	5.62
903.422	183.52
903.588	23.2
903.753	22.83
903.919	132.8
904.084	89.11
904.25	74.3
904.415	245.91
904.581	51.16
904.746	209.99
904.912	132.8
905.077	62.82
905.242	2.28
905.408	42.83
905.573	69.48
905.738	78.93
905.904	740.2
906.069	740.2
