Data from FLMT087451__18__14-07-40-530.txt Node

Date: Tue Jun 04 14:07:40 JST 2024
User: power
Spectrometer: FLMT08745
Trigger mode: 0
Integration Time (sec): 2.000000E-1
Scans to average: 11
Electric dark correction enabled: true
Nonlinearity correction enabled: false
Boxcar width: 0
XAxis mode: Wavelengths
Number of Pixels in Spectrum: 3648
>>>>>Begin Spectral Data<<<<<
194.923	-319.62
195.148	-319.62
195.372	-319.62
195.597	-352.76
195.821	-335.36
196.046	75.07
196.271	-51.56
196.495	-108.39
196.72	-11.94
196.944	-27.12
197.169	-11.2
197.393	77.48
197.618	17.12
197.842	88.58
198.067	1.57
198.291	-106.73
198.516	57.11
198.74	-97.65
198.964	70.07
199.189	7.5
199.413	130.98
199.637	35.64
199.862	-36.38
200.086	12.5
200.31	173.93
200.535	6.94
200.759	175.96
200.983	-91.17
201.207	-52.85
201.432	-13.42
201.656	134.68
201.88	12.13
202.104	-52.11
202.328	58.22
202.552	81.92
202.777	26.75
203.001	50.26
203.225	-38.41
203.449	-150.04
203.673	58.41
203.897	-15.09
204.121	-4.54
204.345	87.84
204.569	-64.15
204.793	-1.02
205.017	32.12
205.241	39.34
205.465	-34.16
205.689	-42.12
205.912	30.64
206.136	-72.48
206.36	3.8
206.584	60.63
206.808	-93.95
207.032	61.92
207.255	73.77
207.479	104.5
207.703	17.31
207.927	-24.34
208.15	-66.37
208.374	-36.19
208.598	-57.11
208.822	0.65
209.045	-10.09
209.269	7.13
209.492	217.06
209.716	135.23
209.94	47.48
210.163	68.59
210.387	111.91
210.61	67.11
210.834	-26.94
211.057	-31.75
211.281	-65.63
211.504	-49.71
211.728	-10.09
211.951	153.56
212.175	171.52
212.398	-24.16
212.622	-36.19
212.845	182.44
213.068	8.61
213.292	23.42
213.515	-58.78
213.738	-47.48
213.962	8.61
214.185	-55.08
214.408	36.75
214.631	95.62
214.855	19.53
215.078	-44.89
215.301	64.33
215.524	-18.98
215.747	78.4
215.971	-28.6
216.194	-9.9
216.417	-13.98
216.64	56.74
216.863	690.8
217.086	71.18
217.309	-58.59
217.532	80.81
217.755	-73.96
217.978	48.23
218.201	96.17
218.424	111.91
218.647	-72.85
218.87	0.28
219.093	73.22
219.316	128.2
219.539	30.27
219.762	-21.01
219.985	3.05
220.207	-164.67
220.43	17.31
220.653	68.4
220.876	-21.2
221.099	138.94
221.321	-2.87
221.544	-23.97
221.767	71.18
221.99	-31.56
222.212	27.12
222.435	68.96
222.658	112.83
222.88	-62.85
223.103	162.63
223.326	-126.72
223.548	65.44
223.771	-3.05
223.993	-3.24
224.216	-25.64
224.438	43.97
224.661	19.35
224.883	43.6
225.106	192.25
225.328	-37.3
225.551	84.51
225.773	-28.79
225.996	-16.2
226.218	21.2
226.44	50.08
226.663	55.45
226.885	-28.79
227.108	68.03
227.33	69.51
227.552	4.72
227.774	-0.83
227.997	16.2
228.219	54.7
228.441	98.21
228.663	164.85
228.886	2.68
229.108	-1.2
229.33	-4.17
229.552	-72.29
229.774	53.59
229.996	-13.24
230.219	82.84
230.441	-1.02
230.663	29.9
230.885	-32.3
231.107	9.16
231.329	43.23
231.551	109.32
231.773	-23.79
231.995	45.26
232.217	9.16
232.439	-23.97
232.661	-6.76
232.883	-7.5
233.105	-33.05
233.326	-10.64
233.548	83.77
233.77	-11.02
233.992	143.38
234.214	-35.45
234.436	-72.11
234.657	18.05
234.879	206.32
235.101	-71.55
235.323	17.49
235.544	12.31
235.766	55.08
235.988	124.13
236.21	72.48
236.431	138.94
236.653	89.88
236.874	137.46
237.096	51.56
237.318	-126.16
237.539	38.97
237.761	17.68
237.982	-1.39
238.204	161.52
238.425	-49.15
238.647	43.78
238.868	-12.68
239.09	69.51
239.311	-106.35
239.533	25.64
239.754	87.66
239.975	-1.39
240.197	-13.61
240.418	11.76
240.64	53.22
240.861	41.38
241.082	66.74
241.304	12.68
241.525	-26.94
241.746	-11.39
241.967	-120.05
242.189	0.83
242.41	129.13
242.631	253.72
242.852	-56.37
243.073	96.54
243.294	-16.57
243.516	17.68
243.737	31.56
243.958	-63.59
244.179	12.68
244.4	184.48
244.621	-41.56
244.842	17.12
245.063	126.9
245.284	50.63
245.505	39.71
245.726	40.08
245.947	115.61
246.168	-19.16
246.389	-1.02
246.61	67.29
246.831	114.5
247.052	-1.2
247.272	31.19
247.493	5.28
247.714	103.02
247.935	-63.04
248.156	103.95
248.376	98.39
248.597	141.9
248.818	1.39
249.039	-25.08
249.259	-11.2
249.48	-84.32
249.701	55.45
249.921	-60.26
250.142	-53.04
250.363	88.77
250.583	22.31
250.804	75.25
251.025	107.65
251.245	102.84
251.466	120.79
251.686	-20.09
251.907	-52.85
252.127	85.25
252.348	42.86
252.568	-5.09
252.789	94.14
253.009	75.62
253.23	149.67
253.45	57.11
253.67	60.26
253.891	-32.86
254.111	121.54
254.331	58.22
254.552	31.19
254.772	47.11
254.992	26.38
255.213	-36.38
255.433	102.47
255.653	-7.68
255.873	45.82
256.093	93.03
256.314	-40.08
256.534	-56.37
256.754	184.11
256.974	-10.09
257.194	-17.12
257.414	27.31
257.634	46.56
257.855	0.83
258.075	-37.12
258.295	-13.42
258.515	-12.13
258.735	55.45
258.955	36.19
259.175	-25.83
259.395	26.94
259.615	53.59
259.835	69.89
260.054	3.05
260.274	87.1
260.494	77.66
260.714	227.24
260.934	84.14
261.154	64.15
261.374	-14.53
261.593	14.35
261.813	-95.99
262.033	3.98
262.253	23.79
262.472	31.75
262.692	26.38
262.912	49.89
263.132	73.96
263.351	66.55
263.571	202.44
263.791	64.33
264.01	152.45
264.23	52.48
264.449	-3.05
264.669	173
264.888	168.19
265.108	7.5
265.328	176.52
265.547	45.26
265.767	76.55
265.986	-55.45
266.205	86.55
266.425	12.68
266.644	62.29
266.864	-101.54
267.083	115.98
267.303	5.83
267.522	49.34
267.741	50.45
267.961	104.32
268.18	-54.33
268.399	109.87
268.618	41.75
268.838	125.05
269.057	36.19
269.276	25.45
269.495	28.97
269.715	167.82
269.934	-33.97
270.153	117.09
270.372	-51.93
270.591	104.13
270.81	90.8
271.029	104.13
271.249	47.86
271.468	-5.65
271.687	103.95
271.906	53.96
272.125	104.87
272.344	105.24
272.563	13.98
272.782	18.79
273.001	-38.97
273.22	70.07
273.439	68.4
273.657	68.22
273.876	97.28
274.095	-83.03
274.314	120.42
274.533	158.56
274.752	20.83
274.971	119.5
275.189	185.96
275.408	125.05
275.627	18.05
275.846	154.86
276.064	1.76
276.283	-78.03
276.502	60.81
276.72	-40.64
276.939	-14.35
277.158	9.72
277.376	-7.87
277.595	64.89
277.814	1.94
278.032	109.69
278.251	-40.08
278.469	-40.26
278.688	7.87
278.906	196.88
279.125	49.15
279.343	7.13
279.562	2.31
279.78	-104.32
279.999	46.19
280.217	21.57
280.435	30.64
280.654	-33.79
280.872	86.55
281.091	84.51
281.309	56.93
281.527	126.35
281.746	-9.35
281.964	-19.72
282.182	61.18
282.4	39.15
282.619	196.51
282.837	155.6
283.055	-29.9
283.273	16.2
283.491	41.75
283.71	91.73
283.928	-1.39
284.146	-17.49
284.364	42.67
284.582	31.19
284.8	48.6
285.018	61
285.236	-88.03
285.454	140.23
285.672	97.84
285.89	21.2
286.108	-87.84
286.326	43.41
286.544	78.96
286.762	-10.09
286.98	-88.21
287.198	171.33
287.416	284.26
287.634	112.09
287.851	56.74
288.069	53.59
288.287	6.39
288.505	-31.38
288.723	64.15
288.94	73.22
289.158	17.86
289.376	168.74
289.594	46.37
289.811	-31.38
290.029	17.68
290.247	175.59
290.464	83.03
290.682	-89.69
290.9	94.69
291.117	102.1
291.335	11.76
291.552	-48.6
291.77	42.67
291.987	-16.2
292.205	34.71
292.422	46.93
292.64	95.99
292.857	-67.11
293.075	10.83
293.292	32.12
293.51	24.16
293.727	21.94
293.945	38.78
294.162	23.05
294.379	56.74
294.597	39.52
294.814	46.19
295.031	57.67
295.249	93.58
295.466	47.67
295.683	17.12
295.9	58.96
296.118	9.16
296.335	-68.22
296.552	64.52
296.769	168.19
296.986	58.04
297.204	22.31
297.421	16.2
297.638	49.52
297.855	80.07
298.072	-1.02
298.289	54.89
298.506	-11.57
298.723	113.2
298.94	55.08
299.157	16.94
299.374	30.64
299.591	115.98
299.808	-39.52
300.025	-47.86
300.242	2.5
300.459	63.04
300.676	-30.27
300.893	-50.82
301.109	69.7
301.326	114.32
301.543	97.47
301.76	13.98
301.977	-39.34
302.193	-34.34
302.41	118.02
302.627	-65.63
302.844	-16.94
303.06	1.57
303.277	48.23
303.494	37.49
303.71	27.86
303.927	88.4
304.144	-4.17
304.36	46.74
304.577	21.57
304.793	99.88
305.01	-35.08
305.227	12.5
305.443	56.74
305.66	211.32
305.876	-96.73
306.093	-8.42
306.309	29.71
306.526	-90.99
306.742	86.55
306.958	63.96
307.175	46.93
307.391	-14.53
307.608	102.47
307.824	95.25
308.04	104.87
308.257	24.71
308.473	223.54
308.689	3.8
308.905	100.43
309.122	-20.83
309.338	-73.59
309.554	70.26
309.77	37.67
309.986	56
310.203	-125.42
310.419	17.49
310.635	52.85
310.851	-35.64
311.067	128.57
311.283	45.26
311.499	-84.32
311.715	4.54
311.931	105.61
312.147	69.14
312.363	-93.03
312.579	61.18
312.795	78.59
313.011	-63.04
313.227	-33.97
313.443	127.64
313.659	56
313.875	0.65
314.091	124.68
314.307	104.87
314.523	3.24
314.738	4.35
314.954	137.46
315.17	-31.38
315.386	47.48
315.602	-42.12
315.817	-1.2
316.033	17.86
316.249	-20.64
316.465	48.78
316.68	18.79
316.896	66.74
317.112	-45.08
317.327	-28.23
317.543	244.83
317.758	10.64
317.974	68.77
318.19	113.39
318.405	-12.5
318.621	40.45
318.836	5.83
319.052	-23.79
319.267	86.92
319.483	0.28
319.698	80.99
319.914	-15.09
320.129	-37.3
320.344	105.06
320.56	80.81
320.775	172.82
320.99	70.26
321.206	53.59
321.421	82.66
321.636	13.24
321.852	74.88
322.067	50.63
322.282	-40.08
322.498	-23.23
322.713	65.81
322.928	121.72
323.143	-22.49
323.358	32.67
323.574	134.49
323.789	16.38
324.004	21.94
324.219	29.9
324.434	108.39
324.649	13.42
324.864	100.8
325.079	7.68
325.294	-27.86
325.509	-62.48
325.724	106.54
325.939	-4.72
326.154	65.63
326.369	259.08
326.584	10.83
326.799	-39.15
327.014	149.86
327.229	-7.13
327.444	76.55
327.659	-20.83
327.873	55.45
328.088	79.7
328.303	-6.57
328.518	-44.52
328.733	-31.56
328.947	75.25
329.162	-35.45
329.377	31.38
329.591	95.25
329.806	-7.87
330.021	-36.93
330.235	128.76
330.45	71.74
330.665	-69.51
330.879	-22.68
331.094	71
331.309	41.01
331.523	39.15
331.738	33.23
331.952	83.03
332.167	115.24
332.381	-37.49
332.596	50.26
332.81	-45.08
333.025	-28.42
333.239	65.07
333.453	-12.13
333.668	45.82
333.882	103.39
334.097	35.08
334.311	59.89
334.525	49.71
334.74	56.74
334.954	-16.2
335.168	129.13
335.382	77.66
335.597	13.61
335.811	-67.11
336.025	33.79
336.239	-79.33
336.453	65.81
336.668	41.56
336.882	-52.85
337.096	84.32
337.31	58.22
337.524	65.81
337.738	46
337.952	31.38
338.166	19.9
338.38	36.01
338.594	96.73
338.808	-4.35
339.022	178.74
339.236	46.19
339.45	60.07
339.664	235.2
339.878	85.25
340.092	-46.19
340.306	-67.29
340.52	68.03
340.734	111.54
340.948	40.26
341.161	71
341.375	92.47
341.589	54.89
341.803	56.19
342.017	46.93
342.23	16.75
342.444	149.3
342.658	28.97
342.871	88.03
343.085	-16.38
343.299	-82.47
343.512	20.83
343.726	-43.6
343.94	72.66
344.153	118.02
344.367	107.47
344.58	-15.09
344.794	-16.38
345.008	-49.71
345.221	-23.97
345.435	36.19
345.648	50.08
345.862	-16.75
346.075	43.78
346.288	0.09
346.502	131.72
346.715	69.14
346.929	-113.76
347.142	88.21
347.355	38.23
347.569	82.29
347.782	71.55
347.995	60.26
348.209	16.75
348.422	-61.37
348.635	42.49
348.848	78.96
349.062	8.05
349.275	182.44
349.488	77.66
349.701	128.94
349.914	-111.54
350.128	70.63
350.341	24.9
350.554	-105.06
350.767	15.27
350.98	89.51
351.193	5.46
351.406	-15.09
351.619	46.37
351.832	103.02
352.045	7.5
352.258	-9.53
352.471	21.38
352.684	56.37
352.897	82.1
353.11	-20.83
353.323	80.25
353.536	-103.02
353.748	134.12
353.961	-37.49
354.174	-20.27
354.387	17.49
354.6	-57.85
354.813	-41.56
355.025	108.02
355.238	74.88
355.451	8.61
355.664	25.64
355.876	111.91
356.089	132.46
356.302	35.64
356.514	36.75
356.727	-13.05
356.94	-25.64
357.152	-43.6
357.365	33.6
357.577	-40.26
357.79	-24.16
358.002	-130.24
358.215	-74.51
358.427	-6.2
358.64	101.36
358.852	-22.49
359.065	-38.97
359.277	-6.39
359.49	138.94
359.702	131.16
359.915	1.94
360.127	-58.41
360.339	-29.53
360.552	-37.12
360.764	35.27
360.976	81.73
361.189	-24.9
361.401	95.43
361.613	137.46
361.825	-53.78
362.038	52.85
362.25	112.28
362.462	24.9
362.674	-6.57
362.886	154.12
363.099	72.66
363.311	108.95
363.523	82.29
363.735	132.64
363.947	32.12
364.159	125.79
364.371	90.43
364.583	-0.28
364.795	6.94
365.007	56.93
365.219	-26.2
365.431	34.71
365.643	-16.94
365.855	-46.37
366.067	-68.03
366.279	-13.98
366.491	-31.56
366.703	34.34
366.914	-4.91
367.126	24.16
367.338	120.42
367.55	66.18
367.762	30.27
367.974	9.53
368.185	-61.55
368.397	43.23
368.609	54.15
368.82	60.07
369.032	98.39
369.244	-28.05
369.456	132.09
369.667	40.08
369.879	124.68
370.09	-47.48
370.302	40.45
370.514	131.16
370.725	97.47
370.937	-72.29
371.148	-4.91
371.36	78.22
371.571	11.94
371.783	24.16
371.994	58.22
372.206	22.12
372.417	242.61
372.629	40.08
372.84	-25.27
373.051	8.42
373.263	114.87
373.474	44.15
373.685	-11.57
373.897	53.96
374.108	59.33
374.319	-37.67
374.531	21.57
374.742	94.69
374.953	24.71
375.164	-77.66
375.375	34.9
375.587	-15.46
375.798	79.7
376.009	93.21
376.22	85.99
376.431	28.23
376.642	-36.38
376.853	93.03
377.065	65.44
377.276	30.64
377.487	-20.83
377.698	-59.89
377.909	45.08
378.12	81.55
378.331	-17.12
378.542	7.87
378.753	8.42
378.964	22.68
379.174	82.29
379.385	27.49
379.596	-58.04
379.807	86.55
380.018	-62.11
380.229	162.63
380.44	187.63
380.65	-39.89
380.861	83.58
381.072	25.45
381.283	65.44
381.493	140.23
381.704	130.42
381.915	21.01
382.126	-46.56
382.336	130.05
382.547	137.27
382.757	20.46
382.968	-56.93
383.179	20.83
383.389	115.61
383.6	27.12
383.81	10.27
384.021	216.69
384.231	215.02
384.442	20.83
384.652	-16.75
384.863	143.2
385.073	87.29
385.284	133.94
385.494	66.37
385.705	18.42
385.915	22.68
386.125	0.65
386.336	-0.65
386.546	-40.45
386.756	124.87
386.967	-0.83
387.177	135.42
387.387	158.38
387.598	44.34
387.808	51.93
388.018	80.25
388.228	5.46
388.439	71.92
388.649	-28.23
388.859	-65.07
389.069	90.43
389.279	-27.31
389.489	22.12
389.699	21.94
389.909	-7.87
390.12	-51.37
390.33	121.35
390.54	-4.35
390.75	112.28
390.96	24.53
391.17	-0.65
391.38	-37.3
391.59	-56.19
391.799	-33.05
392.009	98.95
392.219	54.33
392.429	11.2
392.639	32.49
392.849	10.27
393.059	122.09
393.269	145.79
393.478	55.63
393.688	146.53
393.898	97.84
394.108	-48.04
394.317	11.02
394.527	-25.45
394.737	65.26
394.947	24.53
395.156	-9.53
395.366	57.67
395.576	111.91
395.785	76.18
395.995	119.5
396.204	72.48
396.414	-81.36
396.624	8.05
396.833	-49.15
397.043	23.05
397.252	14.16
397.462	209.84
397.671	28.97
397.881	-68.59
398.09	25.27
398.299	-50.45
398.509	48.97
398.718	49.52
398.928	56.19
399.137	148.01
399.346	42.86
399.556	41.56
399.765	-70.81
399.974	-29.16
400.184	73.22
400.393	82.29
400.602	46.19
400.811	99.69
401.021	38.23
401.23	122.83
401.439	57.85
401.648	87.29
401.857	11.2
402.066	47.48
402.276	35.45
402.485	151.53
402.694	30.82
402.903	74.88
403.112	-31.38
403.321	160.41
403.53	112.83
403.739	-14.72
403.948	28.05
404.157	85.62
404.366	18.42
404.575	-7.68
404.784	95.99
404.993	78.22
405.202	218.17
405.411	169.3
405.619	-20.46
405.828	66.18
406.037	115.43
406.246	46
406.455	9.35
406.663	117.65
406.872	38.41
407.081	96.54
407.29	116.54
407.498	77.48
407.707	42.49
407.916	9.53
408.124	144.49
408.333	239.09
408.542	-29.16
408.75	56.74
408.959	31.56
409.168	88.58
409.376	53.96
409.585	110.43
409.793	216.13
410.002	100.25
410.21	180.41
410.419	138.2
410.627	60.07
410.836	105.98
411.044	78.96
411.253	98.76
411.461	6.02
411.669	218.54
411.878	215.39
412.086	66.37
412.294	179.48
412.503	-1.2
412.711	120.24
412.919	148.75
413.128	82.29
413.336	14.72
413.544	208.54
413.752	190.96
413.961	207.06
414.169	74.7
414.377	177.81
414.585	287.96
414.793	116.54
415.001	59.7
415.209	154.49
415.418	74.33
415.626	182.07
415.834	89.69
416.042	110.24
416.25	19.53
416.458	1.39
416.666	78.03
416.874	200.03
417.082	217.62
417.29	70.44
417.498	116.17
417.706	133.01
417.913	109.87
418.121	137.83
418.329	293.33
418.537	101.54
418.745	87.84
418.953	177.44
419.161	308.14
419.368	168
419.576	64.33
419.784	153.75
419.992	167.26
420.199	252.6
420.407	132.46
420.615	229.09
420.822	219.1
421.03	168.19
421.238	202.44
421.445	107.84
421.653	93.95
421.861	246.31
422.068	147.45
422.276	217.43
422.483	116.35
422.691	233.35
422.898	416.44
423.106	115.98
423.313	171.7
423.521	297.22
423.728	289.44
423.936	227.06
424.143	264.08
424.35	353.87
424.558	243.16
424.765	292.22
424.973	235.94
425.18	188
425.387	306.29
425.594	269.27
425.802	469.02
426.009	277.41
426.216	246.68
426.424	345.54
426.631	380.53
426.838	280.37
427.045	306.11
427.252	334.25
427.459	447.36
427.667	407.56
427.874	280.37
428.081	358.68
428.288	397.37
428.495	257.79
428.702	452.17
428.909	290.93
429.116	262.97
429.323	301.66
429.53	362.57
429.737	277.6
429.944	377.93
430.151	291.67
430.358	482.35
430.565	361.64
430.772	254.64
430.979	312.59
431.185	320.73
431.392	269.08
431.599	426.62
431.806	363.12
432.013	384.97
432.219	376.82
432.426	422.18
432.633	392.93
432.84	399.22
433.046	359.79
433.253	371.83
433.46	494.75
433.666	367.94
433.873	482.16
434.08	522.89
434.286	445.88
434.493	608.97
434.7	420.7
434.906	466.43
435.113	359.42
435.319	583.05
435.526	345.54
435.732	515.11
435.939	418.66
436.145	371.64
436.352	468.83
436.558	416.07
436.765	592.13
436.971	415.15
437.177	474.39
437.384	371.09
437.59	433.66
437.796	548.99
438.003	481.98
438.209	680.43
438.415	469.76
438.622	577.87
438.828	609.16
439.034	617.67
439.24	504.56
439.447	556.21
439.653	491.97
439.859	482.9
440.065	504.38
440.271	481.05
440.477	546.03
440.683	519.19
440.89	452.36
441.096	664.88
441.302	577.69
441.508	631.56
441.714	472.53
441.92	420.88
442.126	439.4
442.332	598.79
442.538	502.52
442.744	545.1
442.95	556.77
443.156	500.86
443.361	576.58
443.567	449.95
443.773	550.1
443.979	668.21
444.185	442.17
444.391	403.67
444.596	457.91
444.802	459.21
445.008	738.01
445.214	393.12
445.42	596.2
445.625	389.78
445.831	548.99
446.037	563.8
446.242	512.89
446.448	417.74
446.654	439.03
446.859	400.89
447.065	406.63
447.27	528.81
447.476	406.63
447.682	312.96
447.887	447.17
448.093	448.1
448.298	362.01
448.504	423.29
448.709	343.5
448.915	463.65
449.12	289.44
449.325	366.09
449.531	293.15
449.736	372.38
449.942	225.76
450.147	315.18
450.352	339.43
450.558	292.96
450.763	301.48
450.968	494.38
451.174	239.46
451.379	256.31
451.584	268.71
451.789	285.93
451.995	331.47
452.2	149.49
452.405	180.41
452.61	226.5
452.815	334.06
453.02	180.78
453.226	190.03
453.431	297.03
453.636	192.99
453.841	249.83
454.046	254.46
454.251	264.27
454.456	204.29
454.661	253.35
454.866	186.51
455.071	270.38
455.276	196.51
455.481	228.54
455.686	163.37
455.891	133.2
456.095	179.29
456.3	155.97
456.505	107.28
456.71	267.6
456.915	167.26
457.12	184.48
457.324	88.58
457.529	151.71
457.734	201.88
457.939	92.1
458.144	109.87
458.348	75.99
458.553	150.97
458.758	58.96
458.962	56.93
459.167	156.89
459.372	195.4
459.576	280
459.781	154.49
459.985	129.31
460.19	166.52
460.394	111.72
460.599	186.51
460.803	134.31
461.008	230.57
461.212	129.31
461.417	165.6
461.621	78.59
461.826	104.13
462.03	15.83
462.235	121.35
462.439	153.01
462.643	377.93
462.848	197.99
463.052	31.38
463.256	162.26
463.461	105.61
463.665	59.52
463.869	170.04
464.074	82.66
464.278	106.73
464.482	203.36
464.686	7.13
464.89	103.02
465.095	291.85
465.299	48.78
465.503	104.32
465.707	89.69
465.911	60.81
466.115	94.51
466.319	40.64
466.523	242.61
466.727	90.8
466.931	143.2
467.135	85.81
467.339	142.08
467.543	67.85
467.747	97.47
467.951	69.33
468.155	21.38
468.359	182.07
468.563	63.59
468.767	94.14
468.971	66.55
469.175	30.64
469.379	62.48
469.582	176.52
469.786	40.82
469.99	13.05
470.194	83.95
470.397	147.82
470.601	94.88
470.805	180.41
471.009	112.09
471.212	109.13
471.416	109.5
471.62	123.39
471.823	89.32
472.027	190.4
472.23	-61.74
472.434	258.9
472.638	85.62
472.841	83.4
473.045	57.11
473.248	58.96
473.452	104.69
473.655	116.91
473.859	107.47
474.062	62.11
474.266	120.05
474.469	17.49
474.672	95.06
474.876	80.62
475.079	32.12
475.283	145.23
475.486	61.18
475.689	30.45
475.893	89.69
476.096	154.86
476.299	35.27
476.502	50.45
476.706	86.18
476.909	87.66
477.112	147.64
477.315	86.55
477.519	154.67
477.722	128.76
477.925	73.4
478.128	69.33
478.331	31.38
478.534	-3.05
478.737	153.01
478.94	58.78
479.143	-91.17
479.346	56.74
479.549	125.61
479.752	49.71
479.955	3.8
480.158	115.98
480.361	65.44
480.564	87.29
480.767	44.34
480.97	34.71
481.173	17.86
481.376	83.4
481.579	14.53
481.782	18.42
481.984	106.17
482.187	103.58
482.39	112.28
482.593	94.51
482.796	117.28
482.998	72.29
483.201	155.78
483.404	33.6
483.606	-111.91
483.809	159.12
484.012	62.67
484.214	59.33
484.417	66.92
484.62	17.31
484.822	-47.3
485.025	113.76
485.227	190.4
485.43	36.56
485.632	28.6
485.835	168.56
486.037	113.02
486.24	11.2
486.442	336.28
486.645	87.84
486.847	47.11
487.05	97.84
487.252	86.92
487.455	106.17
487.657	115.61
487.859	83.21
488.062	60.07
488.264	70.63
488.466	30.45
488.668	70.44
488.871	-1.57
489.073	95.99
489.275	95.43
489.477	9.72
489.68	72.29
489.882	80.81
490.084	86.55
490.286	154.67
490.488	93.4
490.69	58.41
490.893	181.7
491.095	-42.67
491.297	127.64
491.499	170.59
491.701	148.93
491.903	85.99
492.105	110.98
492.307	108.39
492.509	308.14
492.711	14.16
492.913	151.9
493.115	146.9
493.317	53.59
493.518	94.32
493.72	86.73
493.922	82.29
494.124	97.65
494.326	182.63
494.528	3.42
494.73	127.46
494.931	201.69
495.133	3.98
495.335	107.65
495.537	76.73
495.738	229.46
495.94	116.17
496.142	3.05
496.343	57.85
496.545	39.52
496.747	93.03
496.948	53.59
497.15	130.42
497.351	17.12
497.553	5.28
497.755	109.69
497.956	197.07
498.158	78.22
498.359	104.13
498.561	53.59
498.762	-5.65
498.964	73.59
499.165	144.12
499.366	110.8
499.568	18.23
499.769	123.02
499.971	64.15
500.172	90.25
500.373	73.22
500.575	81.36
500.776	115.98
500.977	88.4
501.178	126.53
501.38	137.83
501.581	211.51
501.782	79.51
501.983	165.6
502.185	56.19
502.386	53.59
502.587	56.19
502.788	92.1
502.989	22.31
503.19	113.02
503.391	107.1
503.593	91.17
503.794	27.12
503.995	55.26
504.196	238.72
504.397	98.76
504.598	52.67
504.799	-13.61
505	204.1
505.201	176.33
505.402	101.73
505.602	27.31
505.803	9.16
506.004	17.86
506.205	129.13
506.406	135.79
506.607	100.06
506.808	200.95
507.008	118.57
507.209	158.38
507.41	219.65
507.611	-13.24
507.812	81.92
508.012	30.64
508.213	77.29
508.414	4.72
508.614	36.75
508.815	-8.05
509.016	218.73
509.216	174.85
509.417	130.05
509.617	65.81
509.818	90.06
510.019	165.6
510.219	109.32
510.42	30.82
510.62	107.28
510.821	95.8
511.021	150.97
511.222	142.82
511.422	206.69
511.623	95.25
511.823	159.67
512.023	14.35
512.224	236.31
512.424	-5.09
512.624	80.44
512.825	-3.61
513.025	184.48
513.225	21.57
513.426	71
513.626	-5.65
513.826	152.08
514.026	165.41
514.227	123.57
514.427	105.06
514.627	-0.65
514.827	63.22
515.027	241.5
515.228	97.84
515.428	160.41
515.628	110.61
515.828	90.06
516.028	68.22
516.228	209.29
516.428	190.4
516.628	170.96
516.828	8.05
517.028	153.01
517.228	42.49
517.428	70.26
517.628	152.82
517.828	218.54
518.028	241.87
518.228	100.8
518.428	103.21
518.627	112.09
518.827	60.26
519.027	146.71
519.227	237.24
519.427	268.9
519.626	125.05
519.826	183.74
520.026	90.8
520.226	180.22
520.425	226.13
520.625	61.18
520.825	2.13
521.024	161.52
521.224	85.25
521.424	162.45
521.623	75.81
521.823	91.36
522.023	143.01
522.222	102.65
522.422	92.29
522.621	215.58
522.821	137.46
523.02	162.63
523.22	181.89
523.419	242.61
523.619	159.86
523.818	71.55
524.017	90.8
524.217	166.71
524.416	255.01
524.616	384.23
524.815	40.82
525.014	147.64
525.214	108.76
525.413	77.85
525.612	253.16
525.812	123.94
526.011	134.49
526.21	180.78
526.409	149.67
526.608	304.07
526.808	95.25
527.007	213.91
527.206	247.24
527.405	83.58
527.604	130.61
527.803	189.11
528.003	121.54
528.202	252.05
528.401	359.05
528.6	114.5
528.799	108.21
528.998	108.21
529.197	112.09
529.396	93.21
529.595	177.26
529.794	170.59
529.993	106.17
530.192	247.98
530.39	99.88
530.589	155.6
530.788	168.93
530.987	83.58
531.186	122.46
531.385	93.77
531.583	144.86
531.782	185.22
531.981	67.66
532.18	130.61
532.379	17.12
532.577	72.11
532.776	73.59
532.975	135.79
533.173	81.92
533.372	110.06
533.571	97.84
533.769	127.83
533.968	267.04
534.166	93.95
534.365	-20.46
534.564	139.86
534.762	112.09
534.961	15.64
535.159	309.25
535.358	90.62
535.556	62.67
535.755	108.02
535.953	74.14
536.151	296.29
536.35	2.31
536.548	132.64
536.747	61
536.945	92.1
537.143	111.35
537.342	48.23
537.54	26.75
537.738	128.94
537.937	105.24
538.135	133.94
538.333	35.08
538.531	117.83
538.73	33.05
538.928	167.45
539.126	28.05
539.324	241.13
539.522	176.7
539.72	81.36
539.919	88.4
540.117	-12.87
540.315	146.34
540.513	169.48
540.711	115.61
540.909	79.14
541.107	100.06
541.305	55.63
541.503	214.84
541.701	100.43
541.899	87.47
542.097	246.68
542.295	29.9
542.493	44.89
542.691	-34.71
542.888	102.84
543.086	-31.75
543.284	-9.9
543.482	200.03
543.68	163.56
543.878	181.7
544.075	64.7
544.273	77.48
544.471	99.88
544.669	153.75
544.866	176.15
545.064	113.57
545.262	128.94
545.459	107.84
545.657	208.73
545.855	96.73
546.052	-26.38
546.25	167.26
546.447	275.38
546.645	47.86
546.842	144.31
547.04	119.87
547.238	20.64
547.435	92.1
547.633	63.59
547.83	169.67
548.027	81.18
548.225	123.39
548.422	145.97
548.62	32.67
548.817	115.06
549.014	73.03
549.212	155.6
549.409	181.7
549.606	86.18
549.804	131.53
550.001	160.6
550.198	75.44
550.396	34.16
550.593	-26.01
550.79	63.04
550.987	-12.5
551.184	125.05
551.382	226.5
551.579	42.3
551.776	-77.85
551.973	78.77
552.17	28.23
552.367	166.34
552.564	64.52
552.761	72.11
552.958	78.4
553.155	119.68
553.353	163.56
553.55	95.8
553.746	64.33
553.943	143.01
554.14	231.32
554.337	155.04
554.534	167.63
554.731	137.27
554.928	84.32
555.125	318.88
555.322	78.4
555.519	36.56
555.715	111.17
555.912	53.96
556.109	106.54
556.306	43.6
556.503	150.97
556.699	117.09
556.896	174.11
557.093	184.48
557.289	136.72
557.486	43.97
557.683	292.41
557.879	80.99
558.076	71.18
558.273	60.07
558.469	107.28
558.666	87.29
558.862	168.93
559.059	88.03
559.255	190.96
559.452	51.56
559.648	66.55
559.845	47.3
560.041	103.95
560.238	222.8
560.434	84.7
560.631	66.37
560.827	132.09
561.023	88.21
561.22	48.6
561.416	111.54
561.612	83.95
561.809	59.33
562.005	87.84
562.201	110.43
562.398	149.67
562.594	104.13
562.79	22.86
562.986	271.86
563.182	155.41
563.379	103.21
563.575	102.47
563.771	149.12
563.967	224.65
564.163	93.21
564.359	138.2
564.555	357.2
564.751	152.82
564.947	137.09
565.144	111.35
565.34	252.6
565.536	235.76
565.732	208.91
565.928	148.19
566.123	198.36
566.319	236.5
566.515	332.95
566.711	179.11
566.907	277.97
567.103	155.23
567.299	92.1
567.495	212.62
567.691	142.08
567.886	373.68
568.082	222.43
568.278	303.14
568.474	337.21
568.669	315.92
568.865	293.89
569.061	280.19
569.257	322.77
569.452	350.91
569.648	239.65
569.844	294.44
570.039	322.58
570.235	351.28
570.43	322.4
570.626	405.89
570.822	593.42
571.017	578.61
571.213	403.85
571.408	370.9
571.604	455.69
571.799	389.23
571.995	449.21
572.19	450.69
572.385	454.76
572.581	494.56
572.776	652.11
572.972	654.7
573.167	550.84
573.362	647.48
573.558	712.46
573.753	710.79
573.948	804.28
574.144	729.49
574.339	794.65
574.534	742.82
574.729	752.82
574.925	875.55
575.12	961.08
575.315	832.23
575.51	1000.51
575.705	959.6
575.9	995.15
576.096	1088.63
576.291	1099
576.486	1170.09
576.681	1204.71
576.876	1346.33
577.071	1309.86
577.266	1303.57
577.461	1439.08
577.656	1533.31
577.851	1530.9
578.046	1652.34
578.241	1703.62
578.436	1636.79
578.631	1767.68
578.826	1950.77
579.021	1787.86
579.215	1892.82
579.41	2177.55
579.605	2093.87
579.8	2180.51
579.995	2305.1
580.189	2324.35
580.384	2389.14
580.579	2605.56
580.774	2558.16
580.968	2618.15
581.163	2672.39
581.358	2885.84
581.552	2869.36
581.747	2992.47
581.942	3135.39
582.136	3201.85
582.331	3158.53
582.526	3418.08
582.72	3466.58
582.915	3550.07
583.109	3660.78
583.304	3735.75
583.498	3939.39
583.693	3986.97
583.887	4119.52
584.082	4098.23
584.276	4561.6
584.471	4255.77
584.665	4530.5
584.859	4538.27
585.054	4696.37
585.248	4916.3
585.442	4966.28
585.637	5224.54
585.831	5188.44
586.025	5501.3
586.22	5591.46
586.414	5569.61
586.608	5690.5
586.802	5818.61
586.997	6002.06
587.191	6051.86
587.385	6266.98
587.579	6412.3
587.773	6612.8
587.967	6656.3
588.162	6913.07
588.356	6963.24
588.55	7152.44
588.744	7206.5
588.938	7405.14
589.132	7542.31
589.326	7695.6
589.52	7785.57
589.714	7792.23
589.908	8081.22
590.102	8287.26
590.296	8298.37
590.49	8577.54
590.684	8642.15
590.877	8833.75
591.071	8819.87
591.265	9091.08
591.459	9186.6
591.653	9235.85
591.847	9483.92
592.04	9529.09
592.234	9689.96
592.428	9747.72
592.622	9949.14
592.815	10124.82
593.009	10284.22
593.203	10532.29
593.397	10493.59
593.59	10685.75
593.784	10676.31
593.977	10771.65
594.171	10936.6
594.365	11128.58
594.558	11183.74
594.752	11429.41
594.945	11371.65
595.139	11506.97
595.332	11474.58
595.526	11713.76
595.719	11809.84
595.913	11929.25
596.106	11958.68
596.3	12048.65
596.493	12207.68
596.687	12222.12
596.88	12400.95
597.073	12502.77
597.267	12435.94
597.46	12518.13
597.653	12612.18
597.847	12729.73
598.04	12786.57
598.233	13160.15
598.426	12756.39
598.62	13069.99
598.813	12962.06
599.006	13266.04
599.199	13240.68
599.392	13266.78
599.586	13281.22
599.779	13291.22
599.972	13413.77
600.165	13499.3
600.358	13475.05
600.551	13758.48
600.744	13586.31
600.937	13657.58
601.13	13767.92
601.323	13619.26
601.516	13733.49
601.709	13840.86
601.902	13788.28
602.095	13975.63
602.288	13888.07
602.481	13935.09
602.674	13911.02
602.867	14019.69
603.06	14036.54
603.252	13775.69
603.445	14196.86
603.638	13977.67
603.831	14168.72
604.024	13992.66
604.216	14082.82
604.409	14030.98
604.602	13853.45
604.795	14277.2
604.987	13986.92
605.18	14171.68
605.373	14202.22
605.565	14093.19
605.758	14192.04
605.951	13974.33
606.143	14082.26
606.336	14194.26
606.528	14033.39
606.721	14060.79
606.913	14018.58
607.106	14088.19
607.298	14006.92
607.491	13957.49
607.683	13905.28
607.876	13795.13
608.068	13697.2
608.261	13874.55
608.453	13801.06
608.646	13844.01
608.838	13733.67
609.03	13808.09
609.223	13543.73
609.415	13604.64
609.607	13516.52
609.8	13688.13
609.992	13415.99
610.184	13567.61
610.376	13583.9
610.569	13453.76
610.761	13373.23
610.953	13434.14
611.145	13442.47
611.337	13371.93
611.529	13379.52
611.722	13390.08
611.914	13179.77
612.106	13255.67
612.298	13143.12
612.49	13331.58
612.682	13373.79
612.874	13380.26
613.066	13069.99
613.258	13201.62
613.45	13040.19
613.642	13074.44
613.834	13057.03
614.026	13191.25
614.218	12982.61
614.41	12986.5
614.602	12943.74
614.793	13107.2
614.985	13051.3
615.177	12777.86
615.369	12911.9
615.561	12870.43
615.753	12950.77
615.944	13003.72
616.136	12726.58
616.328	12696.41
616.52	12691.41
616.711	12613.66
616.903	12728.81
617.095	12780.09
617.286	12567.19
617.478	12696.22
617.67	12535.72
617.861	12612.92
618.053	12703.44
618.244	12538.5
618.436	12519.98
618.627	12456.49
618.819	12494.99
619.01	12706.78
619.202	12447.04
619.393	12514.43
619.585	12460.19
619.776	12483.51
619.968	12495.18
620.159	12462.96
620.351	12305.42
620.542	12243.04
620.733	12355.78
620.925	12248.96
621.116	12240.26
621.307	12230.63
621.499	12218.41
621.69	12236
621.881	12004.96
622.072	12245.81
622.264	11952.94
622.455	12046.25
622.646	12130.85
622.837	11857.23
623.028	11932.21
623.22	11792.99
623.411	11979.23
623.602	11784.11
623.793	11649.15
623.984	11708.58
624.175	11783.18
624.366	11754.12
624.557	11577.32
624.748	11446.25
624.939	11590.84
625.13	11494.57
625.321	11389.79
625.512	11297.04
625.703	11253.54
625.894	11253.17
626.085	11035.83
626.276	11046.75
626.467	11043.97
626.658	11064.71
626.848	11028.79
627.039	10842.56
627.23	10828.67
627.421	10828.12
627.612	10799.98
627.802	10815.71
627.993	10694.09
628.184	10740.92
628.375	10590.41
628.565	10578.57
628.756	10367.15
628.947	10466.94
629.137	10464.34
629.328	10273.85
629.519	10082.43
629.709	10280.88
629.9	10072.62
630.09	10082.24
630.281	10099.09
630.471	9969.87
630.662	9998.2
630.852	9854.91
631.043	9871.76
631.233	9957.84
631.424	9842.14
631.614	9740.5
631.805	9736.06
631.995	9780.86
632.185	9627.57
632.376	9540.75
632.566	9567.04
632.756	9465.03
632.947	9373.4
633.137	9271.95
633.327	9548.9
633.518	9322.12
633.708	9360.81
633.898	9321.56
634.088	9293.42
634.279	9134.21
634.469	9045.91
634.659	9097.93
634.849	9003.33
635.039	8963.9
635.229	9000.74
635.42	8840.79
635.61	8795.8
635.8	8657.33
635.99	8809.69
636.18	8722.49
636.37	8636.41
636.56	8795.06
636.75	8636.96
636.94	8574.95
637.13	8486.83
637.32	8613.82
637.51	8279.67
637.7	8416.66
637.89	8288.74
638.079	8422.77
638.269	8208.95
638.459	8086.95
638.649	8116.39
638.839	8204.32
639.029	8196.36
639.218	8055.67
639.408	7881.28
639.598	8001.06
639.788	7946.26
639.977	7903.49
640.167	7844.44
640.357	7730.77
640.546	7620.25
640.736	7653.57
640.926	7787.79
641.115	7646.35
641.305	7526.95
641.495	7509.55
641.684	7495.85
641.874	7481.78
642.063	7408.28
642.253	7380.33
642.442	7411.24
642.632	7297.58
642.821	7092.64
643.011	7198.16
643.2	7200.76
643.39	7209.83
643.579	7090.05
643.768	7026
643.958	7101.16
644.147	6985.08
644.336	6794.77
644.526	6974.35
644.715	6717.39
644.904	6920.11
645.094	6830.69
645.283	6625.01
645.472	6809.96
645.661	6640.56
645.851	6566.14
646.04	6583.73
646.229	6384.35
646.418	6509.31
646.607	6472.1
646.796	6403.42
646.986	6392.68
647.175	6401.75
647.364	6402.12
647.553	6378.43
647.742	6281.61
647.931	6204.96
648.12	6085.56
648.309	6113.33
648.498	6069.64
648.687	6254.39
648.876	5940.6
649.065	5988.92
649.254	6071.67
649.443	5823.79
649.632	6079.63
649.82	5899.32
650.009	5808.05
650.198	5743.63
650.387	5752.89
650.576	5673.84
650.765	5867.85
650.953	5738.26
651.142	5622.19
651.331	5686.61
651.52	5657.92
651.708	5698.27
651.897	5635.7
652.086	5489.45
652.274	5463.35
652.463	5503.89
652.652	5474.64
652.84	5465.57
653.029	5461.31
653.217	5410.77
653.406	5394.3
653.594	5338.76
653.783	5372.27
653.972	5283.59
654.16	5228.05
654.349	5218.8
654.537	5295.81
654.725	5377.63
654.914	5174.37
655.102	5102.54
655.291	5107.72
655.479	5106.24
655.667	5035.71
655.856	5055.52
656.044	5013.31
656.232	5080.51
656.421	5042.56
656.609	4882.79
656.797	5012.38
656.986	4922.04
657.174	4863.91
657.362	4761.54
657.55	4822.63
657.738	4793.93
657.927	4740.25
658.115	4740.62
658.303	4635.83
658.491	4745.98
658.679	4660.64
658.867	4598.44
659.055	4536.98
659.243	4562.52
659.431	4521.8
659.619	4535.13
659.807	4516.43
659.995	4550.31
660.183	4508.47
660.371	4352.96
660.559	4545.12
660.747	4366.48
660.935	4322.97
661.123	4182.83
661.311	4311.49
661.499	4246.14
661.687	4186.53
661.875	4281.5
662.062	4238.37
662.25	4198.75
662.438	4159.69
662.626	4195.42
662.813	4099.34
663.001	4100.45
663.189	3933.65
663.377	3987.15
663.564	3962.72
663.752	4024.92
663.94	3926.25
664.127	3849.05
664.315	3995.3
664.502	3810.73
664.69	3979.01
664.878	3931.8
665.065	3819.06
665.253	3811.1
665.44	3812.21
665.628	3728.53
665.815	3806.47
666.003	3776.11
666.19	3685.4
666.378	3672.07
666.565	3631.34
666.752	3735.75
666.94	3712.61
667.127	3677.62
667.315	3636.15
667.502	3525.45
667.689	3363.65
667.877	3396.42
668.064	3640.78
668.251	3409.56
668.438	3337.36
668.626	3368.09
668.813	3346.99
669	3381.24
669.187	3282.38
669.374	3296.45
669.562	3220.36
669.749	3470.1
669.936	3244.24
670.123	3142.05
670.31	3390.86
670.497	3234.8
670.684	3241.09
670.871	3069.67
671.058	3191.67
671.245	3188.89
671.432	3172.97
671.619	3072.44
671.806	3130.39
671.993	3242.02
672.18	3066.52
672.367	2978.22
672.554	2945.45
672.741	2975.81
672.928	2980.44
673.115	3067.63
673.302	2974.33
673.488	2962.11
673.675	2936.56
673.862	2830.86
674.049	2953.41
674.235	2921.75
674.422	2832.71
674.609	2838.82
674.796	2834
674.982	2787.72
675.169	2713.67
675.356	2863.44
675.542	2850.11
675.729	2795.31
675.916	2713.12
676.102	2817.71
676.289	2844.18
676.475	2624.25
676.662	2635.73
676.848	2673.87
677.035	2638.69
677.221	2590.93
677.408	2603.89
677.594	2698.49
677.781	2660.91
677.967	2562.24
678.154	2489.3
678.34	2547.98
678.526	2409.51
678.713	2531.51
678.899	2470.97
679.085	2510.03
679.272	2417.65
679.458	2415.25
679.644	2474.12
679.831	2261.59
680.017	2479.12
680.203	2382.29
680.389	2385.07
680.576	2434.69
680.762	2223.83
680.948	2343.23
681.134	2254.37
681.32	2207.35
681.506	2329.16
681.692	2224.94
681.879	2272.52
682.065	2234.93
682.251	2315.09
682.437	2152.18
682.623	2205.68
682.809	2028.52
682.995	2030.74
683.181	2218.64
683.367	2239.38
683.553	2002.42
683.739	2067.77
683.924	2093.87
684.11	2060.18
684.296	2115.53
684.482	2224.94
684.668	2042.22
684.854	1952.25
685.04	2017.78
685.225	1962.98
685.411	2030.19
685.597	1919.66
685.783	1970.57
685.968	1850.06
686.154	1919.85
686.34	1824.32
686.526	1825.99
686.711	1803.04
686.897	2059.99
687.083	1746.39
687.268	1925.22
687.454	1863.94
687.639	1922.07
687.825	1802.85
688.01	1964.47
688.196	1820.07
688.382	1858.94
688.567	1907.45
688.752	1900.6
688.938	1654.93
689.123	1961.69
689.309	1782.67
689.494	1621.8
689.68	1840.43
689.865	1866.53
690.05	1747.68
690.236	1737.32
690.421	1610.87
690.606	1496.84
690.792	1595.88
690.977	1579.22
691.162	1620.13
691.348	1641.24
691.533	1532.2
691.718	1476.29
691.903	1559.96
692.089	1565.15
692.274	1520.72
692.459	1464.07
692.644	1582.37
692.829	1696.59
693.014	1478.69
693.199	1520.35
693.384	1454.07
693.569	1611.8
693.755	1598.47
693.94	1514.42
694.125	1557.93
694.31	1387.43
694.495	1447.78
694.68	1318.19
694.864	1487.21
695.049	1364.84
695.234	1345.77
695.419	1605.14
695.604	1397.24
695.789	1421.49
695.974	1452.96
696.159	1365.77
696.344	1396.13
696.528	1390.94
696.713	1316.34
696.898	1382.8
697.083	1353.36
697.267	1288.57
697.452	1274.69
697.637	1306.71
697.822	1283.2
698.006	1324.67
698.191	1332.63
698.375	1306.16
698.56	1307.64
698.745	1293.75
698.929	1277.83
699.114	1268.76
699.298	1274.13
699.483	1376.69
699.668	1147.13
699.852	1049.76
700.037	1203.6
700.221	1050.68
700.405	1329.67
700.59	1293.38
700.774	1156.39
700.959	1092.89
701.143	1163.05
701.328	1236.18
701.512	1044.76
701.696	1037.35
701.881	1139.73
702.065	1017.73
702.249	1059.2
702.433	1170.64
702.618	1092.89
702.802	1125.84
702.986	1106.04
703.17	1577.92
703.355	1028.84
703.539	943.31
703.723	1112.7
703.907	1018.47
704.091	1181.2
704.275	1001.62
704.46	943.31
704.644	1115.66
704.828	930.54
705.012	910.17
705.196	980.71
705.38	872.04
705.564	1185.83
705.748	963.12
705.932	1057.53
706.116	912.58
706.3	903.69
706.484	942.01
706.668	1008.84
706.851	980.71
707.035	1086.41
707.219	1028.84
707.403	934.79
707.587	893.14
707.771	984.22
707.954	871.11
708.138	990.15
708.322	881.85
708.506	803.72
708.689	879.63
708.873	760.41
709.057	829.46
709.241	992.37
709.424	823.35
709.608	913.5
709.792	727.64
709.975	812.61
710.159	727.08
710.342	786.14
710.526	907.4
710.709	863.34
710.893	801.13
711.077	833.72
711.26	840.38
711.443	799.65
711.627	904.06
711.81	922.39
711.994	720.05
712.177	758.92
712.361	817.24
712.544	690.8
712.727	794.65
712.911	770.77
713.094	748
713.277	754.67
713.461	771.14
713.644	672.66
713.827	829.27
714.011	657.85
714.194	669.14
714.377	757.81
714.56	783.73
714.743	758.92
714.927	743.56
715.11	687.1
715.293	641.18
715.476	740.78
715.659	726.71
715.842	692.09
716.025	576.76
716.208	656.73
716.391	755.96
716.575	687.1
716.758	733.19
716.941	598.79
717.124	640.63
717.306	668.95
717.489	473.09
717.672	592.13
717.855	644.7
718.038	552.32
718.221	668.03
718.404	472.35
718.587	490.49
718.77	496.6
718.952	599.53
719.135	636.74
719.318	546.03
719.501	522.89
719.684	587.87
719.866	638.78
720.049	607.12
720.232	600.83
720.414	679.13
720.597	642.29
720.78	549.92
720.962	536.96
721.145	595.46
721.328	538.44
721.51	507.71
721.693	503.08
721.875	502.52
722.058	398.67
722.24	513.45
722.423	656.55
722.605	426.81
722.788	459.76
722.97	539.18
723.153	451.24
723.335	368.49
723.518	486.05
723.7	577.5
723.882	492.16
724.065	505.86
724.247	417.55
724.429	470.5
724.612	535.66
724.794	351.09
724.976	486.42
725.159	494.01
725.341	471.61
725.523	443.1
725.705	431.07
725.888	654.88
726.07	404.41
726.252	299.44
726.434	374.97
726.616	410.89
726.798	273.52
726.98	416.07
727.162	345.35
727.345	505.49
727.527	409.22
727.709	352.39
727.891	468.28
728.073	446.25
728.255	343.13
728.437	504.01
728.619	349.61
728.801	422.92
728.982	352.39
729.164	334.06
729.346	417
729.528	449.39
729.71	295.37
729.892	372.01
730.074	440.69
730.255	455.87
730.437	366.09
730.619	369.97
730.801	646.37
730.983	385.34
731.164	451.99
731.346	489.57
731.528	330.36
731.709	409.04
731.891	291.85
732.073	313.14
732.254	445.69
732.436	305.18
732.617	279.08
732.799	411.07
732.981	326.28
733.162	345.72
733.344	263.9
733.525	362.75
733.707	383.67
733.888	333.69
734.07	311.84
734.251	320.73
734.433	319.81
734.614	340.54
734.795	417
734.977	399.04
735.158	315.55
735.34	446.62
735.521	317.77
735.702	280.93
735.883	362.01
736.065	331.84
736.246	353.13
736.427	377.56
736.609	442.36
736.79	265.93
736.971	261.31
737.152	260.94
737.333	341.47
737.514	300.74
737.696	434.4
737.877	250.38
738.058	265.56
738.239	262.79
738.42	354.05
738.601	282.59
738.782	285
738.963	411.63
739.144	287.78
739.325	374.23
739.506	350.72
739.687	251.86
739.868	458.83
740.049	317.58
740.23	338.69
740.411	347.94
740.592	318.51
740.773	199.66
740.953	315.73
741.134	290.19
741.315	225.76
741.496	335.17
741.677	250.75
741.857	308.7
742.038	163.56
742.219	227.43
742.4	264.27
742.58	193.18
742.761	252.79
742.942	276.3
743.122	264.27
743.303	235.02
743.484	203.36
743.664	252.79
743.845	297.03
744.025	317.03
744.206	276.67
744.386	274.82
744.567	164.48
744.748	267.41
744.928	464.57
745.108	316.66
745.289	244.09
745.469	251.12
745.65	404.04
745.83	200.95
746.011	241.5
746.191	337.21
746.371	193.92
746.552	307.22
746.732	237.79
746.912	354.79
747.093	287.59
747.273	277.6
747.453	179.11
747.633	386.08
747.814	175.59
747.994	259.08
748.174	331.1
748.354	212.06
748.534	239.46
748.715	229.83
748.895	341.47
749.075	143.2
749.255	389.78
749.435	204.47
749.615	331.28
749.795	262.23
749.975	287.59
750.155	254.09
750.335	242.42
750.515	253.72
750.695	279.26
750.875	243.35
751.055	306.11
751.235	208.91
751.415	303.7
751.595	183.55
751.775	374.79
751.954	204.29
752.134	304.07
752.314	349.61
752.494	301.66
752.674	170.41
752.854	303.33
753.033	198.73
753.213	163.93
753.393	167.63
753.572	285.74
753.752	170.04
753.932	234.09
754.111	192.99
754.291	273.34
754.471	210.4
754.65	226.87
754.83	221.13
755.01	228.17
755.189	207.25
755.369	160.97
755.548	280.19
755.728	254.64
755.907	266.3
756.087	194.85
756.266	364.98
756.446	94.69
756.625	165.41
756.804	522.33
756.984	186.51
757.163	179.66
757.343	212.62
757.522	83.95
757.701	194.1
757.881	295.92
758.06	112.65
758.239	145.79
758.418	322.77
758.598	331.84
758.777	246.87
758.956	214.28
759.135	227.61
759.315	184.85
759.494	398.11
759.673	235.76
759.852	145.23
760.031	140.42
760.21	142.82
760.389	69.33
760.568	181.52
760.748	226.87
760.927	136.53
761.106	186.33
761.285	220.02
761.464	122.83
761.643	227.24
761.822	243.53
762	259.27
762.179	121.54
762.358	173.37
762.537	193.55
762.716	156.89
762.895	134.31
763.074	226.69
763.253	259.64
763.431	129.31
763.61	188.74
763.789	202.44
763.968	141.71
764.147	224.28
764.325	195.4
764.504	176.52
764.683	135.79
764.861	219.28
765.04	162.45
765.219	115.98
765.397	164.67
765.576	299.26
765.755	265.93
765.933	155.6
766.112	248.53
766.29	142.64
766.469	89.32
766.647	171.52
766.826	158.93
767.004	188.18
767.183	211.14
767.361	251.86
767.54	322.21
767.718	285.19
767.897	149.3
768.075	99.88
768.253	96.17
768.432	212.06
768.61	121.35
768.788	87.1
768.967	208.36
769.145	99.69
769.323	238.16
769.501	141.16
769.68	112.83
769.858	220.39
770.036	80.25
770.214	254.27
770.393	107.28
770.571	151.71
770.749	68.4
770.927	9.16
771.105	270.56
771.283	99.51
771.461	120.24
771.639	195.03
771.817	98.76
771.995	68.59
772.173	211.88
772.351	135.98
772.529	217.62
772.707	265.19
772.885	121.35
773.063	288.15
773.241	268.71
773.419	137.46
773.597	208.54
773.775	91.36
773.953	96.73
774.131	129.5
774.308	235.57
774.486	233.91
774.664	181.7
774.842	148.75
775.02	269.82
775.197	262.05
775.375	209.1
775.553	97.65
775.73	117.65
775.908	209.66
776.086	190.03
776.263	163.37
776.441	219.28
776.619	-10.46
776.796	98.21
776.974	173.74
777.151	83.4
777.329	114.5
777.506	245.75
777.684	100.62
777.861	199.84
778.039	184.11
778.216	251.12
778.394	237.79
778.571	204.66
778.749	24.9
778.926	148.75
779.103	124.68
779.281	122.46
779.458	282.04
779.635	171.33
779.813	183
779.99	109.32
780.167	80.44
780.345	289.07
780.522	288.52
780.699	96.17
780.876	73.96
781.054	152.64
781.231	80.99
781.408	170.41
781.585	121.91
781.762	68.22
781.939	90.06
782.116	128.2
782.294	173.74
782.471	33.79
782.648	108.39
782.825	70.07
783.002	119.13
783.179	153.01
783.356	41.01
783.533	119.87
783.71	100.43
783.887	185.96
784.064	184.11
784.24	101.17
784.417	98.39
784.594	111.17
784.771	96.54
784.948	253.9
785.125	51.37
785.302	126.72
785.478	384.23
785.655	67.48
785.832	-0.09
786.009	80.99
786.185	159.86
786.362	211.32
786.539	15.27
786.715	389.41
786.892	150.04
787.069	312.96
787.245	157.82
787.422	125.42
787.599	176.89
787.775	153.38
787.952	77.11
788.128	227.98
788.305	143.38
788.481	93.58
788.658	60.81
788.834	173.93
789.011	50.45
789.187	228.54
789.364	43.97
789.54	278.52
789.717	182.63
789.893	-5.28
790.069	158.93
790.246	65.44
790.422	137.83
790.598	126.9
790.775	150.79
790.951	201.32
791.127	124.5
791.304	86.73
791.48	47.11
791.656	113.95
791.832	123.02
792.008	73.22
792.185	94.69
792.361	115.61
792.537	139.68
792.713	175.96
792.889	128.57
793.065	208.36
793.241	153.93
793.417	132.09
793.593	23.23
793.769	128.38
793.945	21.01
794.121	117.46
794.297	131.53
794.473	130.79
794.649	179.66
794.825	100.06
795.001	115.61
795.177	-4.17
795.353	179.66
795.529	139.31
795.705	116.54
795.881	70.81
796.056	129.87
796.232	120.24
796.408	204.84
796.584	111.91
796.76	133.2
796.935	60.81
797.111	53.78
797.287	47.48
797.462	177.63
797.638	218.73
797.814	53.59
797.989	103.02
798.165	160.78
798.341	315.92
798.516	95.43
798.692	173.19
798.867	202.81
799.043	143.01
799.218	209.1
799.394	102.1
799.569	386.82
799.745	149.86
799.92	130.42
800.096	147.27
800.271	175.41
800.447	361.46
800.622	139.86
800.797	15.83
800.973	11.39
801.148	154.49
801.323	159.3
801.499	55.63
801.674	35.27
801.849	194.1
802.025	148.56
802.2	292.22
802.375	173.74
802.55	207.43
802.725	36.38
802.901	96.36
803.076	134.68
803.251	77.29
803.426	131.53
803.601	180.59
803.776	14.53
803.951	28.42
804.127	93.58
804.302	101.36
804.477	92.1
804.652	204.66
804.827	29.71
805.002	3.05
805.177	134.86
805.352	311.84
805.526	151.34
805.701	288.33
805.876	200.58
806.051	63.59
806.226	162.08
806.401	171.7
806.576	119.5
806.751	89.51
806.925	74.51
807.1	98.95
807.275	61.37
807.45	67.29
807.625	441.8
807.799	185.22
807.974	89.14
808.149	-19.9
808.323	85.81
808.498	149.86
808.673	138.2
808.847	-17.31
809.022	137.46
809.197	203.55
809.371	50.45
809.546	199.29
809.72	64.89
809.895	135.79
810.069	-54.15
810.244	253.53
810.418	21.01
810.593	199.84
810.767	170.41
810.942	201.14
811.116	312.77
811.29	166.34
811.465	75.81
811.639	152.64
811.814	274.26
811.988	279.82
812.162	184.48
812.337	61.74
812.511	188.37
812.685	109.69
812.859	124.5
813.034	163.37
813.208	166.52
813.382	53.22
813.556	143.75
813.73	174.85
813.905	61.55
814.079	67.48
814.253	130.98
814.427	247.61
814.601	48.6
814.775	126.72
814.949	53.96
815.123	144.31
815.297	22.68
815.471	36.38
815.645	93.77
815.819	126.16
815.993	109.13
816.167	99.14
816.341	100.99
816.515	150.23
816.689	-46.93
816.863	119.68
817.037	115.61
817.21	148.93
817.384	85.81
817.558	153.01
817.732	265.19
817.906	146.16
818.079	-24.71
818.253	180.78
818.427	14.35
818.601	145.97
818.774	219.47
818.948	127.09
819.122	249.46
819.295	160.04
819.469	105.98
819.643	119.31
819.816	78.22
819.99	140.42
820.163	49.89
820.337	63.96
820.511	220.76
820.684	147.82
820.858	187.07
821.031	12.13
821.205	126.72
821.378	131.72
821.551	138.38
821.725	145.79
821.898	88.4
822.072	151.71
822.245	212.43
822.418	136.16
822.592	22.31
822.765	65.63
822.938	187.81
823.112	57.85
823.285	173.93
823.458	118.2
823.631	80.62
823.805	129.87
823.978	143.75
824.151	94.14
824.324	191.33
824.497	176.7
824.671	109.32
824.844	107.47
825.017	127.64
825.19	-69.51
825.363	-63.04
825.536	113.02
825.709	99.88
825.882	106.17
826.055	99.14
826.228	-51.56
826.401	90.06
826.574	51.19
826.747	107.47
826.92	156.15
827.093	107.47
827.266	131.72
827.439	81.55
827.612	60.63
827.785	64.7
827.957	104.13
828.13	103.58
828.303	145.42
828.476	110.98
828.649	56.37
828.821	188.92
828.994	98.02
829.167	48.23
829.34	259.64
829.512	162.63
829.685	230.57
829.858	143.75
830.03	179.85
830.203	219.28
830.375	286.67
830.548	168.93
830.721	115.24
830.893	88.03
831.066	132.64
831.238	134.49
831.411	260.75
831.583	130.61
831.756	179.11
831.928	65.81
832.101	93.58
832.273	111.17
832.446	62.29
832.618	170.04
832.79	132.46
832.963	33.6
833.135	62.85
833.307	121.54
833.48	201.88
833.652	101.36
833.824	236.68
833.997	142.64
834.169	171.33
834.341	113.39
834.513	25.45
834.686	78.22
834.858	135.42
835.03	109.87
835.202	35.64
835.374	36.01
835.546	149.3
835.718	69.33
835.891	120.98
836.063	89.69
836.235	119.68
836.407	36.75
836.579	163
836.751	3.42
836.923	93.03
837.095	144.86
837.267	111.54
837.439	146.16
837.611	32.86
837.782	113.2
837.954	156.89
838.126	110.98
838.298	215.21
838.47	255.94
838.642	17.49
838.814	189.85
838.985	62.48
839.157	36.38
839.329	31.93
839.501	206.88
839.672	-13.61
839.844	180.22
840.016	57.67
840.188	198.55
840.359	160.6
840.531	66.18
840.702	4.35
840.874	298.33
841.046	-4.91
841.217	60.07
841.389	95.99
841.56	99.69
841.732	-65.26
841.903	93.58
842.075	3.05
842.246	94.51
842.418	188.92
842.589	119.31
842.761	129.31
842.932	73.22
843.104	221.87
843.275	116.17
843.446	19.9
843.618	25.27
843.789	154.3
843.96	-68.59
844.132	119.13
844.303	96.91
844.474	55.63
844.646	109.87
844.817	-28.6
844.988	64.15
845.159	257.79
845.331	181.52
845.502	6.39
845.673	120.42
845.844	-41.56
846.015	211.51
846.186	63.41
846.357	112.09
846.528	69.89
846.7	16.38
846.871	55.82
847.042	70.81
847.213	115.06
847.384	420.88
847.555	166.89
847.726	0.65
847.897	164.85
848.067	-12.68
848.238	170.41
848.409	112.83
848.58	168.74
848.751	115.8
848.922	97.1
849.093	113.76
849.264	87.29
849.434	179.48
849.605	42.67
849.776	19.16
849.947	-4.91
850.117	72.85
850.288	147.08
850.459	28.05
850.63	174.67
850.8	157.82
850.971	245.94
851.142	6.94
851.312	-92.1
851.483	5.09
851.653	54.15
851.824	71
851.995	27.12
852.165	185.22
852.336	69.14
852.506	189.66
852.677	156.71
852.847	104.87
853.018	106.91
853.188	34.16
853.358	188.74
853.529	174.3
853.699	135.42
853.87	102.28
854.04	-33.23
854.21	64.33
854.381	63.59
854.551	210.58
854.721	61.92
854.892	109.13
855.062	-50.82
855.232	24.9
855.402	117.46
855.573	108.21
855.743	127.46
855.913	50.63
856.083	61.37
856.253	105.06
856.423	-14.9
856.594	48.97
856.764	141.53
856.934	97.65
857.104	51.56
857.274	207.62
857.444	29.34
857.614	51.19
857.784	111.91
857.954	20.27
858.124	5.65
858.294	-10.27
858.464	170.04
858.634	12.5
858.804	126.16
858.974	5.46
859.143	0.46
859.313	-44.71
859.483	116.91
859.653	-2.13
859.823	66.37
859.993	24.53
860.162	126.53
860.332	138.57
860.502	24.53
860.672	109.87
860.841	154.3
861.011	58.59
861.181	-29.53
861.35	253.9
861.52	78.22
861.69	84.14
861.859	101.73
862.029	54.7
862.198	88.58
862.368	69.33
862.538	78.96
862.707	97.47
862.877	102.28
863.046	132.27
863.216	2.87
863.385	122.46
863.555	112.46
863.724	197.44
863.893	80.81
864.063	274.63
864.232	255.75
864.402	60.26
864.571	34.53
864.74	79.88
864.91	-17.31
865.079	141.34
865.248	120.24
865.418	148.01
865.587	80.62
865.756	87.1
865.925	129.5
866.094	271.49
866.264	143.01
866.433	28.05
866.602	171.33
866.771	21.38
866.94	89.69
867.109	16.75
867.278	116.72
867.448	58.96
867.617	30.45
867.786	154.3
867.955	44.52
868.124	14.9
868.293	86.36
868.462	22.12
868.631	130.79
868.8	221.5
868.969	87.29
869.137	147.45
869.306	121.35
869.475	121.17
869.644	14.35
869.813	3.42
869.982	126.53
870.151	34.34
870.319	70.81
870.488	66.74
870.657	87.84
870.826	11.94
870.995	38.97
871.163	42.49
871.332	103.95
871.501	118.57
871.669	12.87
871.838	156.15
872.007	153.01
872.175	97.1
872.344	28.42
872.512	-74.88
872.681	54.33
872.85	136.53
873.018	43.04
873.187	-25.83
873.355	198.18
873.524	-2.87
873.692	85.62
873.861	119.87
874.029	61.74
874.197	140.05
874.366	197.07
874.534	84.32
874.703	-24.16
874.871	65.26
875.039	15.27
875.208	19.53
875.376	157.26
875.544	203.18
875.713	88.03
875.881	75.99
876.049	152.82
876.217	128.2
876.386	104.13
876.554	128.01
876.722	156.71
876.89	190.03
877.058	83.03
877.226	101.36
877.395	11.02
877.563	30.45
877.731	29.34
877.899	31.38
878.067	30.08
878.235	38.04
878.403	12.31
878.571	46.56
878.739	64.15
878.907	184.66
879.075	147.45
879.243	40.82
879.411	-13.79
879.579	-4.35
879.747	101.36
879.914	46
880.082	25.83
880.25	19.53
880.418	82.84
880.586	-3.8
880.754	134.12
880.921	116.72
881.089	13.79
881.257	99.88
881.425	63.78
881.592	91.36
881.76	51.74
881.928	176.33
882.095	121.54
882.263	167.08
882.431	56.74
882.598	247.05
882.766	14.16
882.933	69.14
883.101	-28.23
883.269	47.3
883.436	100.43
883.604	73.4
883.771	192.25
883.939	-1.94
884.106	-42.86
884.273	133.94
884.441	66.37
884.608	14.9
884.776	181.15
884.943	222.61
885.11	-3.05
885.278	13.79
885.445	69.14
885.613	90.25
885.78	0.09
885.947	32.67
886.114	165.78
886.282	161.34
886.449	41.75
886.616	118.94
886.783	10.83
886.951	48.6
887.118	17.12
887.285	217.43
887.452	17.49
887.619	47.11
887.786	-97.1
887.953	32.3
888.12	39.34
888.287	119.13
888.455	162.26
888.622	41.38
888.789	32.3
888.956	79.88
889.123	36.38
889.29	-19.35
889.456	39.52
889.623	57.85
889.79	66.92
889.957	136.72
890.124	74.14
890.291	121.17
890.458	41.56
890.625	183.74
890.791	80.62
890.958	24.34
891.125	186.51
891.292	109.87
891.459	49.34
891.625	95.8
891.792	125.05
891.959	-82.29
892.125	-33.42
892.292	-17.68
892.459	59.7
892.625	170.04
892.792	168.93
892.959	-38.04
893.125	275.75
893.292	-28.97
893.458	133.94
893.625	150.04
893.791	85.44
893.958	27.49
894.124	131.72
894.291	26.57
894.457	102.28
894.624	85.25
894.79	72.29
894.957	68.77
895.123	89.32
895.289	116.17
895.456	212.06
895.622	79.7
895.788	95.8
895.955	21.2
896.121	148.56
896.287	317.03
896.454	69.51
896.62	19.9
896.786	58.96
896.952	139.68
897.119	120.05
897.285	132.64
897.451	23.23
897.617	130.42
897.783	112.65
897.949	6.94
898.115	73.22
898.281	-15.83
898.448	215.21
898.614	25.27
898.78	60.63
898.946	109.69
899.112	217.62
899.278	-48.97
899.444	43.23
899.61	268.9
899.775	58.04
899.941	95.99
900.107	51.93
900.273	85.25
900.439	109.87
900.605	68.59
900.771	125.61
900.937	116.54
901.102	196.7
901.268	137.27
901.434	58.04
901.6	118.39
901.766	127.83
901.931	188.74
902.097	112.28
902.263	142.27
902.428	156.34
902.594	-18.23
902.76	56.37
902.925	26.94
903.091	175.96
903.256	38.23
903.422	193.55
903.588	5.65
903.753	22.86
903.919	128.94
904.084	75.25
904.25	75.44
904.415	248.35
904.581	101.36
904.746	225.39
904.912	114.87
905.077	92.47
905.242	-16.2
905.408	16.38
905.573	71.74
905.738	73.03
905.904	769.29
906.069	769.29
