Data from FLMT087451__19__14-08-19-375.txt Node

Date: Tue Jun 04 14:08:19 JST 2024
User: power
Spectrometer: FLMT08745
Trigger mode: 0
Integration Time (sec): 2.000000E-1
Scans to average: 11
Electric dark correction enabled: true
Nonlinearity correction enabled: false
Boxcar width: 0
XAxis mode: Wavelengths
Number of Pixels in Spectrum: 3648
>>>>>Begin Spectral Data<<<<<
194.923	-335.2
195.148	-335.2
195.372	-335.2
195.597	-338.16
195.821	-330.39
196.046	54.12
196.271	-33.26
196.495	-113.98
196.72	-21.78
196.944	-1.79
197.169	12.47
197.393	71.71
197.618	23.76
197.842	72.08
198.067	-10.31
198.291	-110.27
198.516	57.27
198.74	-92.69
198.964	66.89
199.189	22.83
199.413	120.21
199.637	50.6
199.862	-38.44
200.086	26.72
200.31	183.52
200.535	5.25
200.759	183.34
200.983	-53.44
201.207	-49
201.432	3.58
201.656	104.84
201.88	-0.68
202.104	-63.07
202.328	54.3
202.552	101.14
202.777	25.98
203.001	68.37
203.225	-40.67
203.449	-149.89
203.673	42.09
203.897	3.58
204.121	6.73
204.345	84.48
204.569	-74.36
204.793	3.95
205.017	36.16
205.241	51.16
205.465	-29.19
205.689	-12.16
205.912	-14.01
206.136	-90.09
206.36	5.43
206.584	54.3
206.808	-94.91
207.032	90.77
207.255	80.96
207.479	72.26
207.703	7.65
207.927	-1.05
208.15	-88.43
208.374	-38.44
208.598	-88.8
208.822	24.68
209.045	-2.16
209.269	9.13
209.492	203.15
209.716	107.99
209.94	33.94
210.163	83.74
210.387	100.59
210.61	62.45
210.834	-66.58
211.057	-10.86
211.281	-69.73
211.504	-48.63
211.728	-39.19
211.951	118.36
212.175	177.78
212.398	-8.64
212.622	-13.08
212.845	195.37
213.068	3.39
213.292	26.16
213.515	-82.87
213.738	-34.19
213.962	-26.6
214.185	-92.69
214.408	50.42
214.631	105.77
214.855	34.87
215.078	-44.18
215.301	65.6
215.524	-17.34
215.747	70.41
215.971	-40.3
216.194	-6.97
216.417	-0.86
216.64	61.71
216.863	702.8
217.086	63.19
217.309	-57.51
217.532	84.85
217.755	-61.96
217.978	43.2
218.201	113.73
218.424	111.69
218.647	-20.12
218.87	-18.27
219.093	90.59
219.316	103.92
219.539	15.06
219.762	-35.67
219.985	-15.3
220.207	-159.7
220.43	4.13
220.653	54.67
220.876	-33.26
221.099	125.21
221.321	3.95
221.544	-19.38
221.767	86.7
221.99	-42.15
222.212	38.94
222.435	61.52
222.658	106.69
222.88	-79.54
223.103	148.9
223.326	-99.91
223.548	38.2
223.771	-14.56
223.993	-4.38
224.216	-36.96
224.438	34.12
224.661	17.83
224.883	40.05
225.106	202.22
225.328	-54.92
225.551	76.33
225.773	-52.33
225.996	-22.89
226.218	30.42
226.44	45.42
226.663	36.72
226.885	-1.6
227.108	37.27
227.33	50.79
227.552	11.91
227.774	21.54
227.997	28.2
228.219	40.05
228.441	82.63
228.663	160.2
228.886	-14.01
229.108	-18.82
229.33	-9.75
229.552	-56.22
229.774	21.17
229.996	-1.42
230.219	108.36
230.441	-20.3
230.663	23.57
230.885	-37.15
231.107	-2.16
231.329	28.57
231.551	98.55
231.773	-19.75
231.995	59.67
232.217	-11.42
232.439	-10.12
232.661	-10.49
232.883	-29.56
233.105	-31.78
233.326	-5.12
233.548	103.18
233.77	-4.01
233.992	137.06
234.214	-30.67
234.436	-67.32
234.657	44.86
234.879	217.96
235.101	-108.98
235.323	8.58
235.544	-0.49
235.766	73
235.988	131.5
236.21	97.62
236.431	117.62
236.653	85.4
236.874	139.28
237.096	67.45
237.318	-122.86
237.539	50.23
237.761	-1.42
237.982	-14.56
238.204	195.74
238.425	-36.78
238.647	35.24
238.868	-34.74
239.09	62.08
239.311	-76.21
239.533	2.28
239.754	63.19
239.975	-5.68
240.197	-35.85
240.418	-39.56
240.64	62.08
240.861	4.5
241.082	81.89
241.304	-4.94
241.525	-22.71
241.746	-23.82
241.967	-125.27
242.189	6.17
242.41	125.02
242.631	253.68
242.852	-44.18
243.073	107.06
243.294	-24.93
243.516	58.38
243.737	13.95
243.958	-47.7
244.179	31.53
244.4	175.19
244.621	-42.15
244.842	4.32
245.063	142.98
245.284	59.49
245.505	28.94
245.726	37.09
245.947	121.13
246.168	-11.42
246.389	-19.01
246.61	70.59
246.831	116.69
247.052	-20.67
247.272	25.24
247.493	-20.12
247.714	98.18
247.935	-60.47
248.156	93.18
248.376	87.81
248.597	134.65
248.818	-13.45
249.039	-7.53
249.259	7.65
249.48	-84.73
249.701	72.82
249.921	-28.45
250.142	-16.41
250.363	46.16
250.583	9.69
250.804	73.19
251.025	126.69
251.245	115.02
251.466	105.77
251.686	-7.34
251.907	-70.1
252.127	100.96
252.348	60.6
252.568	20.06
252.789	82.81
253.009	71.15
253.23	162.23
253.45	47.82
253.67	67.82
253.891	-28.63
254.111	138.54
254.331	39.49
254.552	18.94
254.772	65.78
254.992	0.99
255.213	-73.62
255.433	113.36
255.653	-31.04
255.873	38.38
256.093	99.1
256.314	-28.08
256.534	-51.77
256.754	172.97
256.974	-14.01
257.194	-1.6
257.414	-18.64
257.634	57.82
257.855	1.36
258.075	-70.66
258.295	0.25
258.515	-16.23
258.735	80.96
258.955	-2.16
259.175	-18.27
259.395	5.8
259.615	50.6
259.835	88.55
260.054	14.13
260.274	72.45
260.494	85.78
260.714	216.47
260.934	69.85
261.154	57.45
261.374	-31.59
261.593	34.68
261.813	-93.24
262.033	20.24
262.253	0.25
262.472	55.97
262.692	40.05
262.912	76.89
263.132	45.05
263.351	74.67
263.571	182.78
263.791	70.59
264.01	158.71
264.23	44.86
264.449	-29
264.669	184.26
264.888	147.61
265.108	0.43
265.328	172.41
265.547	29.13
265.767	45.6
265.986	-69.73
266.205	71.15
266.425	46.34
266.644	80.04
266.864	-84.73
267.083	142.61
267.303	4.5
267.522	34.68
267.741	27.46
267.961	95.03
268.18	-55.29
268.399	99.29
268.618	44.86
268.838	114.47
269.057	12.47
269.276	12.28
269.495	56.34
269.715	149.09
269.934	-35.67
270.153	112.99
270.372	-59.92
270.591	58.19
270.81	102.25
271.029	106.14
271.249	52.27
271.468	-16.41
271.687	137.06
271.906	64.86
272.125	96.33
272.344	92.81
272.563	-12.16
272.782	9.5
273.001	-39.93
273.22	13.76
273.439	49.12
273.657	88
273.876	95.03
274.095	-83.25
274.314	120.39
274.533	131.5
274.752	22.09
274.971	60.78
275.189	189.08
275.408	101.33
275.627	-6.6
275.846	126.13
276.064	19.69
276.283	-81.95
276.502	82.07
276.72	-72.14
276.939	3.95
277.158	-0.12
277.376	-15.12
277.595	64.67
277.814	-11.6
278.032	116.69
278.251	-35.85
278.469	-17.9
278.688	39.86
278.906	211.29
279.125	48.01
279.343	-5.68
279.562	1.36
279.78	-84.36
279.999	41.34
280.217	26.72
280.435	16.72
280.654	-48.07
280.872	65.78
281.091	48.38
281.309	47.45
281.527	127.43
281.746	-2.53
281.964	-42.89
282.182	45.97
282.4	38.57
282.619	161.86
282.837	161.12
283.055	6.54
283.273	-17.34
283.491	39.86
283.71	62.45
283.928	10.8
284.146	-3.64
284.364	32.64
284.582	28.76
284.8	31.9
285.018	51.71
285.236	-112.87
285.454	134.65
285.672	71.71
285.89	3.95
286.108	-63.25
286.326	49.86
286.544	55.04
286.762	12.28
286.98	-71.03
287.198	178.15
287.416	293.67
287.634	118.54
287.851	40.23
288.069	26.72
288.287	13.21
288.505	-26.97
288.723	84.11
288.94	97.99
289.158	20.24
289.376	154.64
289.594	33.01
289.811	-36.04
290.029	-29.37
290.247	165.01
290.464	85.22
290.682	-68.99
290.9	62.82
291.117	76.7
291.335	3.39
291.552	-84.73
291.77	45.42
291.987	-10.12
292.205	28.94
292.422	41.16
292.64	100.59
292.857	-68.43
293.075	42.46
293.292	-1.97
293.51	45.23
293.727	-15.49
293.945	50.6
294.162	25.79
294.379	41.72
294.597	51.16
294.814	39.31
295.031	34.31
295.249	97.62
295.466	20.43
295.683	13.39
295.9	60.78
296.118	-1.6
296.335	-71.21
296.552	80.59
296.769	120.58
296.986	73.74
297.204	24.31
297.421	0.8
297.638	27.83
297.855	56.15
298.072	-1.79
298.289	63
298.506	-20.49
298.723	107.43
298.94	63.56
299.157	15.8
299.374	56.15
299.591	99.84
299.808	-57.7
300.025	-66.4
300.242	-14.38
300.459	69.85
300.676	-22.34
300.893	-43.81
301.109	76.15
301.326	105.77
301.543	94.48
301.76	3.21
301.977	-14.75
302.193	-19.75
302.41	130.39
302.627	-63.99
302.844	-2.16
303.06	-14.38
303.277	44.12
303.494	27.09
303.71	19.13
303.927	85.22
304.144	-22.34
304.36	52.27
304.577	-6.79
304.793	84.85
305.01	-41.96
305.227	8.76
305.443	49.31
305.66	228.69
305.876	-82.13
306.093	-17.34
306.309	21.35
306.526	-88.43
306.742	45.42
306.958	70.96
307.175	59.49
307.391	-42.89
307.608	97.99
307.824	86.7
308.04	92.25
308.257	9.69
308.473	201.29
308.689	-7.71
308.905	106.14
309.122	-10.12
309.338	-52.7
309.554	60.6
309.77	68.37
309.986	38.2
310.203	-138.04
310.419	19.31
310.635	65.04
310.851	-52.14
311.067	134.46
311.283	44.12
311.499	-51.96
311.715	-5.49
311.931	136.87
312.147	66.89
312.363	-81.76
312.579	84.66
312.795	84.85
313.011	-53.81
313.227	-54.18
313.443	148.16
313.659	52.45
313.875	15.24
314.091	116.88
314.307	110.03
314.523	7.84
314.738	-3.09
314.954	129.46
315.17	-16.78
315.386	68.37
315.602	-7.34
315.817	-1.42
316.033	-11.23
316.249	17.65
316.465	39.68
316.68	-23.08
316.896	68.19
317.112	-46.59
317.327	-48.81
317.543	217.96
317.758	-0.86
317.974	64.49
318.19	90.77
318.405	1.54
318.621	16.17
318.836	12.84
319.052	-27.15
319.267	78.56
319.483	-21.41
319.698	84.29
319.914	-13.45
320.129	12.65
320.344	101.7
320.56	86.52
320.775	182.97
320.99	72.08
321.206	65.97
321.421	96.33
321.636	-6.05
321.852	49.68
322.067	21.35
322.282	-58.62
322.498	-25.67
322.713	81.15
322.928	109.47
323.143	-27.52
323.358	14.32
323.574	143.16
323.789	-20.86
324.004	3.21
324.219	14.69
324.434	107.43
324.649	23.57
324.864	77.81
325.079	-2.53
325.294	-16.6
325.509	-41.78
325.724	97.81
325.939	6.17
326.154	56.71
326.369	282.93
326.584	33.75
326.799	-57.88
327.014	148.9
327.229	-17.16
327.444	59.86
327.659	-15.86
327.873	50.42
328.088	86.15
328.303	-2.16
328.518	-25.86
328.733	-38.07
328.947	42.27
329.162	-41.59
329.377	43.01
329.591	87.26
329.806	-26.6
330.021	-54.18
330.235	142.24
330.45	43.75
330.665	-96.76
330.879	-14.75
331.094	104.1
331.309	16.91
331.523	45.05
331.738	28.94
331.952	57.64
332.167	128.17
332.381	-45.85
332.596	15.06
332.81	-19.93
333.025	-39.93
333.239	80.41
333.453	-9.38
333.668	63
333.882	100.96
334.097	17.46
334.311	58.01
334.525	48.01
334.74	45.42
334.954	-29
335.168	127.43
335.382	82.26
335.597	14.87
335.811	-47.7
336.025	50.42
336.239	-103.79
336.453	45.23
336.668	61.52
336.882	-47.89
337.096	69.3
337.31	57.45
337.524	64.49
337.738	44.49
337.952	57.64
338.166	22.09
338.38	43.01
338.594	109.1
338.808	-31.22
339.022	166.86
339.236	32.64
339.45	20.98
339.664	220.73
339.878	80.59
340.092	-44.92
340.306	-78.25
340.52	44.49
340.734	93.37
340.948	6.91
341.161	57.45
341.375	64.86
341.589	34.12
341.803	31.16
342.017	34.87
342.23	23.94
342.444	142.98
342.658	19.5
342.871	78
343.085	-5.86
343.299	-55.11
343.512	3.39
343.726	-41.96
343.94	85.78
344.153	112.25
344.367	102.07
344.58	13.95
344.794	-13.27
345.008	-63.81
345.221	-60.84
345.435	53.56
345.648	21.54
345.862	-6.23
346.075	10.06
346.288	5.8
346.502	129.65
346.715	44.86
346.929	-96.39
347.142	98.18
347.355	64.3
347.569	101.88
347.782	66.71
347.995	66.52
348.209	26.16
348.422	-76.4
348.635	51.34
348.848	49.68
349.062	-26.23
349.275	173.71
349.488	81.89
349.701	132.98
349.914	-99.17
350.128	65.04
350.341	21.72
350.554	-121.2
350.767	28.02
350.98	65.78
351.193	8.21
351.406	-24
351.619	60.41
351.832	80.41
352.045	-0.86
352.258	-19.75
352.471	14.13
352.684	26.35
352.897	46.9
353.11	-33.45
353.323	76.7
353.536	-94.54
353.748	114.28
353.961	-26.41
354.174	-17.71
354.387	10.43
354.6	-70.66
354.813	-17.53
355.025	102.07
355.238	87.26
355.451	24.5
355.664	29.31
355.876	102.07
356.089	138.72
356.302	22.83
356.514	45.6
356.727	16.54
356.94	-3.83
357.152	-39.93
357.365	37.64
357.577	-33.26
357.79	-35.3
358.002	-146.56
358.215	-56.96
358.427	6.36
358.64	120.95
358.852	-60.1
359.065	-30.48
359.277	-24.56
359.49	144.27
359.702	139.09
359.915	-1.97
360.127	-47.15
360.339	-30.48
360.552	-38.81
360.764	31.72
360.976	63.56
361.189	-43.07
361.401	138.91
361.613	155.2
361.825	-78.06
362.038	32.64
362.25	105.77
362.462	16.54
362.674	-5.68
362.886	145.94
363.099	79.11
363.311	123.54
363.523	90.59
363.735	117.25
363.947	35.61
364.159	111.88
364.371	106.69
364.583	8.58
364.795	33.38
365.007	44.12
365.219	-37.52
365.431	14.87
365.643	-58.07
365.855	-51.59
366.067	-93.8
366.279	-20.86
366.491	-22.34
366.703	23.39
366.914	17.28
367.126	12.47
367.338	141.68
367.55	93.18
367.762	37.46
367.974	-4.01
368.185	-43.07
368.397	54.49
368.609	88.37
368.82	55.41
369.032	84.29
369.244	-21.04
369.456	124.1
369.667	74.85
369.879	129.09
370.09	-45.85
370.302	37.46
370.514	120.02
370.725	87.26
370.937	-56.77
371.148	6.36
371.36	65.04
371.571	20.43
371.783	28.2
371.994	64.67
372.206	37.83
372.417	224.62
372.629	26.9
372.84	1.17
373.051	-4.38
373.263	109.47
373.474	93.74
373.685	-19.01
373.897	26.9
374.108	79.48
374.319	-24.93
374.531	19.13
374.742	89.29
374.953	-0.68
375.164	-60.1
375.375	31.72
375.587	-40.11
375.798	54.86
376.009	86.7
376.22	126.87
376.431	-22.89
376.642	-10.68
376.853	107.06
377.065	59.86
377.276	24.87
377.487	-7.34
377.698	-84.91
377.909	42.27
378.12	79.3
378.331	-18.64
378.542	-10.68
378.753	16.17
378.964	40.42
379.174	114.84
379.385	45.05
379.596	-73.8
379.807	90.03
380.018	-56.4
380.229	187.22
380.44	212.77
380.65	-23.45
380.861	67.82
381.072	56.34
381.283	75.59
381.493	151.31
381.704	130.95
381.915	15.24
382.126	-55.85
382.336	128.17
382.547	113.73
382.757	18.57
382.968	-65.47
383.179	14.5
383.389	101.7
383.6	57.27
383.81	7.84
384.021	206.29
384.231	175.38
384.442	21.17
384.652	5.99
384.863	122.62
385.073	112.43
385.284	97.81
385.494	28.76
385.705	18.02
385.915	25.05
386.125	3.58
386.336	-5.31
386.546	-50.29
386.756	139.83
386.967	-23.82
387.177	128.54
387.387	155.2
387.598	48.19
387.808	27.83
388.018	77.63
388.228	16.91
388.439	76.33
388.649	0.62
388.859	-61.77
389.069	91.88
389.279	-58.81
389.489	28.39
389.699	29.87
389.909	28.57
390.12	-80.47
390.33	127.43
390.54	27.65
390.75	137.8
390.96	19.69
391.17	7.28
391.38	-32.15
391.59	-75.84
391.799	8.21
392.009	105.03
392.219	61.34
392.429	8.95
392.639	25.05
392.849	8.02
393.059	130.02
393.269	135.94
393.478	59.86
393.688	158.53
393.898	108.73
394.108	-34.19
394.317	39.86
394.527	-25.49
394.737	74.48
394.947	47.64
395.156	-12.71
395.366	72.82
395.576	132.24
395.785	80.41
395.995	109.66
396.204	62.26
396.414	-55.66
396.624	36.16
396.833	-29.37
397.043	-13.64
397.252	37.09
397.462	204.07
397.671	46.71
397.881	-51.22
398.09	16.72
398.299	-27.34
398.509	36.53
398.718	35.24
398.928	58.38
399.137	172.04
399.346	48.01
399.556	60.78
399.765	-63.81
399.974	-34.19
400.184	51.71
400.393	94.66
400.602	74.67
400.811	104.1
401.021	16.17
401.23	164.27
401.439	86.89
401.648	127.61
401.857	26.16
402.066	35.42
402.276	54.12
402.485	170.19
402.694	26.72
402.903	97.81
403.112	2.28
403.321	189.26
403.53	157.23
403.739	15.24
403.948	60.6
404.157	165.01
404.366	60.41
404.575	63
404.784	165.38
404.993	119.65
405.202	307.74
405.411	226.84
405.619	33.75
405.828	123.36
406.037	185.74
406.246	73.74
406.455	65.6
406.663	208.51
406.872	91.7
407.081	158.53
407.29	199.81
407.498	191.48
407.707	143.16
407.916	102.99
408.124	231.28
408.333	346.99
408.542	90.96
408.75	181.49
408.959	158.16
409.168	221.66
409.376	180.37
409.585	275.9
409.793	366.24
410.002	272.94
410.21	331.81
410.419	309.22
410.627	223.69
410.836	292.56
411.044	294.78
411.253	325.7
411.461	250.54
411.669	476.58
411.878	470.47
412.086	280.16
412.294	430.48
412.503	309.04
412.711	453.81
412.919	432.33
413.128	381.98
413.336	340.51
413.544	561.36
413.752	543.22
413.961	604.68
414.169	520.27
414.377	657.07
414.585	735.38
414.793	560.62
415.001	566.55
415.209	640.6
415.418	628.38
415.626	741.68
415.834	657.44
416.042	687.81
416.25	631.71
416.458	621.34
416.666	729.46
416.874	908.85
417.082	926.06
417.29	831.65
417.498	895.33
417.706	946.43
417.913	1002.33
418.121	1041.03
418.329	1219.49
418.537	1046.21
418.745	1104.89
418.953	1210.6
419.161	1346.3
419.368	1297.05
419.576	1202.09
419.784	1354.07
419.992	1432.57
420.199	1570.67
420.407	1436.08
420.615	1609.36
420.822	1654.72
421.03	1603.07
421.238	1706.37
421.445	1662.31
421.653	1648.42
421.861	1876.87
422.068	1817.07
422.276	1963.51
422.483	1905.38
422.691	2056.63
422.898	2305.44
423.106	2047.74
423.313	2216.21
423.521	2350.79
423.728	2402.81
423.936	2380.04
424.143	2488.53
424.35	2708.46
424.558	2581.09
424.765	2646.81
424.973	2648.29
425.18	2709.75
425.387	2892.47
425.594	2887.66
425.802	3179.79
426.009	2998.92
426.216	3062.97
426.424	3221.81
426.631	3438.22
426.838	3290.12
427.045	3397.87
427.252	3498.57
427.459	3725.72
427.667	3758.31
427.874	3686.29
428.081	3821.62
428.288	3934.73
428.495	4030.81
428.702	4284.25
428.909	4234.08
429.116	4145.03
429.323	4425.13
429.53	4516.95
429.737	4640.25
429.944	4764.65
430.151	4860.55
430.358	5052.71
430.565	4966.44
430.772	5082.7
430.979	5268.56
431.185	5445.92
431.392	5446.66
431.599	5784.7
431.806	5771.18
432.013	5972.78
432.219	6090.52
432.426	6164.02
432.633	6356.92
432.84	6418.94
433.046	6531.12
433.253	6719.21
433.46	6928.78
433.666	6984.68
433.873	7253.12
434.08	7318.1
434.286	7618.55
434.493	7825.71
434.7	7771.28
434.906	7977.14
435.113	8135.61
435.319	8465.88
435.526	8438.85
435.732	8783.55
435.939	8726.16
436.145	8944.61
436.352	9262.47
436.558	9337.45
436.765	9641.8
436.971	9676.23
437.177	9862.65
437.384	10070.92
437.59	10217.35
437.796	10275.11
438.003	10472.64
438.209	10796.61
438.415	10868.07
438.622	11192.6
438.828	11462.33
439.034	11421.41
439.24	11467.51
439.447	11850.54
439.653	11706.32
439.859	11985.12
440.065	11908.48
440.271	12146.18
440.477	12124.34
440.683	12482.74
440.89	12462.19
441.096	13079.96
441.302	12706.37
441.508	12862.44
441.714	12768.39
441.92	12957.41
442.126	12906.87
442.332	13309.89
442.538	13263.23
442.744	13163.45
442.95	13228.99
443.156	13092.73
443.361	13285.45
443.567	13273.42
443.773	13187.52
443.979	13450.4
444.185	13022.76
444.391	13099.21
444.596	13093.84
444.802	12995.54
445.008	13058.48
445.214	12906.68
445.42	12834.3
445.625	12995.17
445.831	12806.34
446.037	12922.6
446.242	12630.66
446.448	12492
446.654	12349.45
446.859	12075.65
447.065	12015.85
447.27	11970.68
447.476	11632.83
447.682	11487.69
447.887	11589.51
448.093	11532.31
448.298	11045.05
448.504	11147.8
448.709	10776.25
448.915	10799.76
449.12	10304.55
449.325	10338.8
449.531	10337.5
449.736	10018.9
449.942	9734.55
450.147	9615.14
450.352	9632.17
450.558	9299.5
450.763	9095.12
450.968	9165.65
451.174	8890.93
451.379	8612.13
451.584	8471.06
451.789	8365.17
451.995	8348.51
452.2	7921.42
452.405	7879.95
452.61	7694.09
452.815	7813.31
453.02	7426.95
453.226	7299.58
453.431	7372.34
453.636	7133.15
453.841	6913.59
454.046	6912.85
454.251	6840.66
454.456	6643.5
454.661	6533.9
454.866	6431.16
455.071	6395.43
455.276	6269.36
455.481	6103.67
455.686	6003.14
455.891	5983.52
456.095	5850.42
456.3	5800.8
456.505	5567.17
456.71	5698.06
456.915	5521.08
457.12	5369.27
457.324	5224.32
457.529	5291.89
457.734	5118.98
457.939	5003.65
458.144	4931.64
458.348	4899.05
458.553	4880.36
458.758	4656.72
458.962	4648.39
459.167	4617.66
459.372	4644.5
459.576	4773.72
459.781	4480.3
459.985	4372.92
460.19	4390.7
460.394	4251.3
460.599	4273.14
460.803	4099.31
461.008	4115.97
461.212	3939.73
461.417	3981.94
461.621	3793.48
461.826	3830.51
462.03	3680.74
462.235	3719.61
462.439	3721.84
462.643	3811.81
462.848	3680
463.052	3450.81
463.256	3472.84
463.461	3300.86
463.665	3274.39
463.869	3313.45
464.074	3192.56
464.278	3101.29
464.482	3198.48
464.686	2925.24
464.89	3067.79
465.095	3191.08
465.299	2850.26
465.503	2873.77
465.707	2783.8
465.911	2745.48
466.115	2744.74
466.319	2682.17
466.523	2779.73
466.727	2594.6
466.931	2639.77
467.135	2502.23
467.339	2498.15
467.543	2457.05
467.747	2432.06
467.951	2367.82
468.155	2306.18
468.359	2434.28
468.563	2256.93
468.767	2206.21
468.971	2111.42
469.175	2148.26
469.379	2087.73
469.582	2181.59
469.786	2063.29
469.99	2006.46
470.194	1992.02
470.397	2079.03
470.601	1951.48
470.805	2080.69
471.009	1932.96
471.212	1933.33
471.416	1924.08
471.62	1868.91
471.823	1861.13
472.027	1889.64
472.23	1649.35
472.434	1996.09
472.638	1775.24
472.841	1722.84
473.045	1739.69
473.248	1666.2
473.452	1699.89
473.655	1726.73
473.859	1626.58
474.062	1599
474.266	1629.36
474.469	1520.87
474.672	1612.14
474.876	1548.27
475.079	1548.27
475.283	1577.89
475.486	1486.81
475.689	1437.75
475.893	1485.14
476.096	1600.66
476.299	1424.42
476.502	1416.65
476.706	1442.19
476.909	1439.79
477.112	1511.43
477.315	1393.51
477.519	1459.78
477.722	1404.61
477.925	1317.42
478.128	1355.93
478.331	1305.57
478.534	1264.66
478.737	1368.51
478.94	1243.55
479.143	1106.19
479.346	1261.88
479.549	1324.08
479.752	1160.25
479.955	1159.69
480.158	1292.06
480.361	1221.71
480.564	1225.41
480.767	1136.37
480.97	1159.32
481.173	1109.71
481.376	1195.79
481.579	1085.64
481.782	1121.37
481.984	1141.18
482.187	1137.29
482.39	1157.66
482.593	1167.28
482.796	1142.47
482.998	1066.94
483.201	1186.72
483.404	1055.1
483.606	915.7
483.809	1191.9
484.012	1059.17
484.214	1048.62
484.417	1047.13
484.62	999.56
484.822	961.98
485.025	1110.26
485.227	1233.19
485.43	1044.36
485.632	1029.92
485.835	1151.36
486.037	1112.67
486.24	996.6
486.442	1310.57
486.645	1065.09
486.847	1066.76
487.05	1069.16
487.252	1078.98
487.455	1064.91
487.657	1066.2
487.859	1074.9
488.062	1050.65
488.264	1078.61
488.466	1011.22
488.668	1064.17
488.871	995.3
489.073	1096.38
489.275	1067.13
489.477	996.23
489.68	1058.98
489.882	1061.02
490.084	1076.75
490.286	1138.22
490.488	1049.54
490.69	1044.91
490.893	1213.75
491.095	945.87
491.297	1153.95
491.499	1178.57
491.701	1190.24
491.903	1124.89
492.105	1136.74
492.307	1130.81
492.509	1344.26
492.711	1012.15
492.913	1214.12
493.115	1155.43
493.317	1103.78
493.518	1111.19
493.72	1103.78
493.922	1110.63
494.124	1153.77
494.326	1209.49
494.528	1064.35
494.73	1186.72
494.931	1265.21
495.133	1047.13
495.335	1180.8
495.537	1160.43
495.738	1302.42
495.94	1196.35
496.142	1095.64
496.343	1118.78
496.545	1126.74
496.747	1181.72
496.948	1141.73
497.15	1217.64
497.351	1109.71
497.553	1124.52
497.755	1216.9
497.956	1327.79
498.158	1194.68
498.359	1245.78
498.561	1195.98
498.762	1127.29
498.964	1224.86
499.165	1285.21
499.366	1229.11
499.568	1147.29
499.769	1261.51
499.971	1228.56
500.172	1234.3
500.373	1204.12
500.575	1246.7
500.776	1270.03
500.977	1250.03
501.178	1295.76
501.38	1290.02
501.581	1370.92
501.782	1253.55
501.983	1353.15
502.185	1188.57
502.386	1230.78
502.587	1209.86
502.788	1257.81
502.989	1234.85
503.19	1324.82
503.391	1306.87
503.593	1240.41
503.794	1226.34
503.995	1255.4
504.196	1413.68
504.397	1285.02
504.598	1258.18
504.799	1187.46
505	1355.93
505.201	1387.58
505.402	1266.32
505.602	1229.11
505.803	1220.78
506.004	1229.11
506.205	1311.12
506.406	1365
506.607	1259.47
506.808	1409.43
507.008	1284.1
507.209	1352.96
507.41	1411.09
507.611	1181.72
507.812	1248.74
508.012	1165.99
508.213	1236.33
508.414	1175.61
508.614	1188.2
508.815	1125.07
509.016	1345
509.216	1305.57
509.417	1247.63
509.617	1226.89
509.818	1195.24
510.019	1283.91
510.219	1172.84
510.42	1123.59
510.62	1222.08
510.821	1181.35
511.021	1208.93
511.222	1222.08
511.422	1253.92
511.623	1109.15
511.823	1226.52
512.023	1062.13
512.224	1234.67
512.424	984.56
512.624	1126.55
512.825	996.23
513.025	1163.39
513.225	1012.52
513.426	1050.28
513.626	964.94
513.826	1121.93
514.026	1111.19
514.227	1096.01
514.427	1051.58
514.627	933.47
514.827	984.01
515.027	1144.14
515.228	1001.22
515.428	1066.57
515.628	976.42
515.828	992.34
516.028	934.02
516.228	1060.09
516.428	1002.33
516.628	973.08
516.828	798.51
517.028	977.9
517.228	845.72
517.428	827.21
517.628	920.14
517.828	956.79
518.028	975.31
518.228	848.86
518.428	856.27
518.627	837.2
518.827	765
519.027	873.86
519.227	933.65
519.427	918.66
519.626	790.55
519.826	856.45
520.026	750.19
520.226	835.35
520.425	864.23
520.625	692.06
520.825	625.42
521.024	785.55
521.224	680.77
521.424	770.93
521.623	655.04
521.823	669.66
522.023	736.86
522.222	654.3
522.422	636.53
522.621	756.3
522.821	678.55
523.02	739.46
523.22	699.28
523.419	721.87
523.619	678.18
523.818	585.8
524.017	597.65
524.217	651.52
524.416	739.46
524.616	880.89
524.815	520.64
525.014	607.28
525.214	569.51
525.413	585.25
525.612	702.62
525.812	572.1
526.011	568.95
526.21	630.97
526.409	555.44
526.608	763.52
526.808	534.52
527.007	608.57
527.206	666.7
527.405	471.39
527.604	518.04
527.803	585.8
528.003	487.87
528.202	620.42
528.401	742.97
528.6	452.51
528.799	480.28
528.998	440.66
529.197	463.43
529.396	452.14
529.595	501.75
529.794	526.38
529.993	452.69
530.192	563.22
530.39	430.66
530.589	473.8
530.788	484.35
530.987	360.5
531.186	441.22
531.385	399.38
531.583	439
531.782	506.01
531.981	361.98
532.18	404.93
532.379	328.29
532.577	351.62
532.776	335.7
532.975	399.38
533.173	340.14
533.372	347.91
533.571	351.99
533.769	372.54
533.968	540.63
534.166	336.62
534.365	220.18
534.564	398.82
534.762	343.84
534.961	271.83
535.159	525.82
535.358	302.74
535.556	278.12
535.755	384.57
535.953	327.36
536.151	510.64
536.35	228.88
536.548	338.84
536.747	269.98
536.945	269.61
537.143	325.51
537.342	229.25
537.54	223.69
537.738	333.29
537.937	311.44
538.135	315.7
538.333	206.11
538.531	314.96
538.73	166.86
538.928	326.62
539.126	163.9
539.324	444.18
539.522	318.48
539.72	242.58
539.919	244.06
540.117	148.72
540.315	301.26
540.513	334.03
540.711	260.16
540.909	222.21
541.107	257.02
541.305	225.18
541.503	359.58
541.701	237.39
541.899	190.37
542.097	407.34
542.295	144.09
542.493	182.04
542.691	95.03
542.888	218.7
543.086	123.73
543.284	105.4
543.482	318.48
543.68	319.22
543.878	304.04
544.075	164.27
544.273	160.2
544.471	193.15
544.669	243.13
544.866	266.64
545.064	212.96
545.262	195.74
545.459	226.29
545.657	311.63
545.855	168.16
546.052	66.71
546.25	249.98
546.447	349.21
546.645	118.17
546.842	209.44
547.04	213.14
547.238	82.81
547.435	164.64
547.633	154.09
547.83	242.39
548.027	136.31
548.225	159.83
548.422	185.37
548.62	90.59
548.817	168.34
549.014	139.65
549.212	197.22
549.409	208.33
549.606	161.49
549.804	165.19
550.001	206.85
550.198	106.14
550.396	92.25
550.593	38.38
550.79	108.18
550.987	8.21
551.184	150.94
551.382	243.5
551.579	93.18
551.776	-30.67
551.973	117.62
552.17	48.56
552.367	174.64
552.564	68
552.761	95.22
552.958	88.74
553.155	117.06
553.353	201.66
553.55	111.14
553.746	81.15
553.943	160.75
554.14	256.09
554.337	151.12
554.534	177.97
554.731	161.12
554.928	98.18
555.125	350.14
555.322	70.41
555.519	68.56
555.715	120.58
555.912	41.34
556.109	119.47
556.306	31.53
556.503	140.94
556.699	109.84
556.896	182.97
557.093	202.96
557.289	143.72
557.486	33.2
557.683	274.6
557.879	66.52
558.076	62.63
558.273	45.42
558.469	58.38
558.666	43.75
558.862	126.87
559.059	89.11
559.255	164.08
559.452	13.76
559.648	62.63
559.845	16.35
560.041	43.75
560.238	193.15
560.434	39.86
560.631	36.53
560.827	77.07
561.023	51.16
561.22	-2.53
561.416	53.56
561.612	64.3
561.809	9.87
562.005	34.68
562.201	85.03
562.398	129.46
562.594	46.71
562.79	-39.19
562.986	204.44
563.182	84.85
563.379	19.69
563.575	31.9
563.771	61.34
563.967	145.02
564.163	14.87
564.359	69.67
564.555	240.91
564.751	68
564.947	56.9
565.144	32.83
565.34	163.16
565.536	142.05
565.732	106.88
565.928	77.63
566.123	97.99
566.319	94.85
566.515	231.47
566.711	39.31
566.907	143.16
567.103	-32.71
567.299	-56.03
567.495	84.11
567.691	-29.93
567.886	207.03
568.082	53.56
568.278	121.69
568.474	155.2
568.669	105.4
568.865	82.26
569.061	72.82
569.257	95.4
569.452	107.43
569.648	22.28
569.844	21.54
570.039	73.37
570.235	47.45
570.43	30.42
570.626	114.65
570.822	279.05
571.017	217.58
571.213	68
571.408	9.87
571.604	83.18
571.799	1.73
571.995	30.61
572.19	20.98
572.385	-19.38
572.581	29.87
572.776	159.64
572.972	135.2
573.167	0.62
573.362	71.71
573.558	150.01
573.753	56.34
573.948	142.05
574.144	67.63
574.339	65.23
574.534	-7.34
574.729	-23.26
574.925	76.15
575.12	135.39
575.315	-27.15
575.51	81.52
575.705	17.83
575.9	36.35
576.096	59.3
576.291	-11.42
576.486	27.83
576.681	48.19
576.876	101.14
577.071	69.11
577.266	23.2
577.461	120.39
577.656	113.91
577.851	79.67
578.046	107.62
578.241	127.8
578.436	14.69
578.631	65.23
578.826	218.33
579.021	-37.52
579.215	16.17
579.41	256.46
579.605	105.77
579.8	66.89
579.995	116.88
580.189	63.56
580.384	74.11
580.579	201.48
580.774	51.9
580.968	90.4
581.163	17.83
581.358	172.04
581.552	28.02
581.747	43.38
581.942	90.4
582.136	95.4
582.331	-0.12
582.526	116.51
582.72	70.22
582.915	96.88
583.109	90.59
583.304	104.47
583.498	194.63
583.693	73.74
583.887	121.13
584.082	-45.85
584.276	267.75
584.471	-61.4
584.665	62.82
584.859	-27.89
585.054	-1.23
585.248	97.44
585.442	31.16
585.637	124.28
585.831	26.9
586.025	129.28
586.22	156.49
586.414	-4.38
586.608	55.41
586.802	-31.59
586.997	33.38
587.191	-8.08
587.385	61.15
587.579	69.48
587.773	131.5
587.967	42.09
588.162	140.39
588.356	14.69
588.55	57.08
588.744	41.53
588.938	47.64
589.132	40.97
589.326	74.67
589.52	5.43
589.714	-62.33
589.908	33.01
590.102	127.24
590.296	30.79
590.49	83.37
590.684	65.04
590.877	105.03
591.071	79.67
591.265	20.8
591.459	71.71
591.653	-11.6
591.847	45.05
592.04	-22.15
592.234	60.6
592.428	-77.88
592.622	74.67
592.815	69.85
593.009	33.38
593.203	204.07
593.397	73.93
593.59	102.44
593.784	73
593.977	1.17
594.171	15.8
594.365	103.73
594.558	158.34
594.752	90.4
594.945	43.38
595.139	42.46
595.332	-1.42
595.526	16.54
595.719	-8.08
595.913	119.1
596.106	35.42
596.3	24.68
596.493	93.74
596.687	38.94
596.88	151.31
597.073	138.54
597.267	32.46
597.46	32.09
597.653	119.65
597.847	33.2
598.04	104.1
598.233	231.65
598.426	-36.96
598.62	58.93
598.813	-7.16
599.006	137.98
599.199	68.93
599.392	103.36
599.586	122.99
599.779	-43.81
599.972	0.25
600.165	75.04
600.358	34.12
600.551	167.23
600.744	29.5
600.937	65.04
601.13	75.59
601.323	50.05
601.516	49.86
601.709	102.99
601.902	92.62
602.095	144.09
602.288	112.8
602.481	31.72
602.674	52.82
602.867	154.46
603.06	128.91
603.252	-38.26
603.445	176.3
603.638	74.3
603.831	123.91
604.024	-20.12
604.216	103.92
604.409	36.53
604.602	-107.13
604.795	150.75
604.987	79.3
605.18	119.47
605.373	149.09
605.565	81.33
605.758	132.24
605.951	-21.78
606.143	91.14
606.336	187.59
606.528	144.27
606.721	29.5
606.913	71.34
607.106	176.49
607.298	160.57
607.491	108.18
607.683	33.75
607.876	28.76
608.068	24.13
608.261	49.86
608.453	156.31
608.646	122.62
608.838	68.93
609.03	129.84
609.223	-2.72
609.415	-28.08
609.607	49.12
609.8	80.59
609.992	12.09
610.184	122.43
610.376	99.84
610.569	136.87
610.761	11.72
610.953	9.87
611.145	132.24
611.337	93.74
611.529	117.43
611.722	125.39
611.914	-6.05
612.106	52.64
612.298	28.57
612.49	150.57
612.682	344.95
612.874	218.14
613.066	-11.6
613.258	130.58
613.45	55.04
613.642	141.5
613.834	133.72
614.026	48.19
614.218	136.87
614.41	89.66
614.602	107.06
614.793	214.81
614.985	142.98
615.177	69.67
615.369	129.09
615.561	18.76
615.753	144.27
615.944	199.81
616.136	116.88
616.328	-0.68
616.52	29.13
616.711	-36.22
616.903	85.78
617.095	136.31
617.286	-18.82
617.478	60.41
617.67	-11.6
617.861	106.88
618.053	133.17
618.244	-3.46
618.436	-15.3
618.627	-63.25
618.819	18.57
619.01	147.24
619.202	4.5
619.393	94.48
619.585	47.27
619.776	93.18
619.968	57.64
620.159	58.93
620.351	39.68
620.542	-19.75
620.733	41.16
620.925	-49
621.116	58.01
621.307	-20.12
621.499	105.21
621.69	90.96
621.881	18.02
622.072	67.26
622.264	-22.71
622.455	60.78
622.646	173.34
622.837	-21.6
623.028	140.2
623.22	31.9
623.411	198.52
623.602	35.98
623.793	80.04
623.984	49.86
624.175	114.28
624.366	140.57
624.557	25.79
624.748	-11.05
624.939	51.53
625.13	153.16
625.321	20.43
625.512	14.32
625.703	41.72
625.894	57.08
626.085	-33.63
626.276	-16.41
626.467	43.75
626.658	42.46
626.848	89.11
627.039	-23.26
627.23	-16.04
627.421	54.86
627.612	34.68
627.802	143.16
627.993	94.11
628.184	229.43
628.375	155.38
628.565	110.58
628.756	-64.73
628.947	45.05
629.137	192.04
629.328	-14.01
629.519	-24
629.709	112.06
629.9	-73.62
630.09	26.72
630.281	32.46
630.471	27.09
630.662	-13.27
630.852	-32.71
631.043	95.59
631.233	127.06
631.424	82.63
631.614	-2.72
631.805	159.09
631.995	158.9
632.185	22.28
632.376	74.48
632.566	72.26
632.756	42.83
632.947	13.58
633.137	-54
633.327	219.25
633.518	56.34
633.708	145.76
633.898	180
634.088	115.58
634.279	-7.71
634.469	7.84
634.659	105.21
634.849	109.66
635.039	28.57
635.229	148.9
635.42	5.62
635.61	58.38
635.8	-69.73
635.99	71.34
636.18	57.08
636.37	74.67
636.56	122.43
636.75	125.58
636.94	32.83
637.13	36.9
637.32	170.38
637.51	-30.48
637.7	113.17
637.89	79.85
638.079	131.13
638.269	10.8
638.459	-25.67
638.649	5.99
638.839	218.51
639.029	137.8
639.218	102.62
639.408	17.83
639.598	127.43
639.788	143.53
639.977	3.58
640.167	44.68
640.357	20.61
640.546	-41.41
640.736	16.72
640.926	166.68
641.115	129.28
641.305	64.49
641.495	76.7
641.684	66.71
641.874	100.77
642.063	35.05
642.253	110.21
642.442	147.98
642.632	159.27
642.821	-12.53
643.011	-1.79
643.2	81.33
643.39	84.11
643.579	131.13
643.768	50.42
643.958	115.02
644.147	65.41
644.336	-0.86
644.526	134.46
644.715	53.56
644.904	126.87
645.094	167.23
645.283	-41.78
645.472	134.46
645.661	81.15
645.851	-33.26
646.04	88.18
646.229	-14.19
646.418	78.37
646.607	62.82
646.796	47.64
646.986	105.4
647.175	119.47
647.364	165.01
647.553	174.45
647.742	55.23
647.931	45.05
648.12	-13.45
648.309	13.95
648.498	70.59
648.687	216.84
648.876	-35.11
649.065	47.08
649.254	82.81
649.443	-24.93
649.632	210.18
649.82	90.59
650.009	31.9
650.198	-114.35
650.387	37.27
650.576	61.71
650.765	137.61
650.953	45.6
651.142	16.35
651.331	52.64
651.52	61.52
651.708	166.86
651.897	128.72
652.086	4.5
652.274	-52.7
652.463	54.3
652.652	122.99
652.84	1.91
653.029	86.15
653.217	92.44
653.406	115.95
653.594	72.82
653.783	127.61
653.972	50.42
654.16	140.94
654.349	28.39
654.537	116.69
654.725	211.66
654.914	78.37
655.102	-27.15
655.291	47.64
655.479	-3.46
655.667	58.93
655.856	8.02
656.044	55.78
656.232	125.95
656.421	148.9
656.609	-5.12
656.797	155.2
656.986	48.01
657.174	98.55
657.362	-30.11
657.55	77.07
657.738	101.51
657.927	110.4
658.115	64.49
658.303	12.28
658.491	135.57
658.679	18.94
658.867	51.53
659.055	-53.25
659.243	78
659.431	36.35
659.619	23.76
659.807	94.29
659.995	147.79
660.183	85.96
660.371	-50.29
660.559	222.4
660.747	23.94
660.935	56.34
661.123	-63.81
661.311	29.68
661.499	-1.6
661.687	9.5
661.875	124.84
662.062	125.39
662.25	83
662.438	87.07
662.626	67.82
662.813	107.81
663.001	14.13
663.189	-48.81
663.377	-1.6
663.564	61.52
663.752	107.06
663.94	8.21
664.127	4.13
664.315	122.24
664.502	-25.67
664.69	145.02
664.878	91.7
665.065	53.75
665.253	59.3
665.44	102.44
665.628	18.39
665.815	133.72
666.003	133.35
666.19	70.04
666.378	46.53
666.565	77.07
666.752	213.51
666.94	150.38
667.127	146.31
667.315	108.92
667.502	56.15
667.689	-98.43
667.877	-51.77
668.064	243.13
668.251	14.5
668.438	74.85
668.626	-21.97
668.813	59.86
669	62.08
669.187	-35.67
669.374	8.02
669.562	-32.52
669.749	202.77
669.936	80.78
670.123	-33.45
670.31	189.82
670.497	33.57
670.684	95.96
670.871	-24.56
671.058	107.62
671.245	81.15
671.432	115.77
671.619	38.38
671.806	119.65
671.993	194.44
672.18	84.85
672.367	4.87
672.554	-2.53
672.741	20.43
672.928	72.45
673.115	79.85
673.302	74.11
673.488	94.85
673.675	80.22
673.862	-25.12
674.049	137.24
674.235	77.26
674.422	23.02
674.609	73.56
674.796	40.6
674.982	24.5
675.169	11.54
675.356	103.73
675.542	144.83
675.729	93.37
675.916	87.44
676.102	191.3
676.289	167.6
676.475	21.17
676.662	51.9
676.848	69.3
677.035	80.96
677.221	56.9
677.408	109.29
677.594	131.69
677.781	154.09
677.967	115.58
678.154	28.76
678.34	65.6
678.526	-12.53
678.713	101.14
678.899	44.12
679.085	107.43
679.272	-13.45
679.458	85.78
679.644	108.55
679.831	-82.87
680.017	174.82
680.203	113.91
680.389	129.09
680.576	154.09
680.762	-14.19
680.948	113.17
681.134	43.94
681.32	-1.97
681.506	107.81
681.692	46.34
681.879	75.78
682.065	93.74
682.251	170.38
682.437	15.24
682.623	89.29
682.809	-55.66
682.995	-88.8
683.181	134.83
683.367	197.96
683.553	-80.47
683.739	78.18
683.924	41.72
684.11	42.83
684.296	134.65
684.482	221.29
684.668	46.34
684.854	-2.53
685.04	59.3
685.225	40.6
685.411	125.95
685.597	15.8
685.783	40.97
685.968	3.39
686.154	56.71
686.34	-45.85
686.526	-21.97
686.711	-29.56
686.897	230.54
687.083	-31.04
687.268	131.87
687.454	4.87
687.639	93.92
687.825	38.2
688.01	165.93
688.196	93.37
688.382	166.12
688.567	187.78
688.752	185.37
688.938	-77.88
689.123	252.76
689.309	94.66
689.494	-69.18
689.68	149.09
689.865	218.14
690.05	109.66
690.236	94.29
690.421	-13.82
690.606	-101.2
690.792	52.27
690.977	20.61
691.162	68
691.348	75.96
691.533	-17.16
691.718	-100.46
691.903	10.06
692.089	9.69
692.274	-13.82
692.459	-67.88
692.644	110.77
692.829	214.62
693.014	23.76
693.199	67.26
693.384	1.91
693.569	134.65
693.755	107.06
693.94	66.15
694.125	142.24
694.31	-37.7
694.495	51.71
694.68	-56.03
694.864	111.32
695.049	-14.75
695.234	-16.97
695.419	224.8
695.604	52.27
695.789	55.97
695.974	142.61
696.159	10.61
696.344	75.59
696.528	87.26
696.713	17.83
696.898	107.06
697.083	73.56
697.267	13.95
697.452	-11.97
697.637	36.16
697.822	31.72
698.006	66.15
698.191	137.61
698.375	118.54
698.56	138.17
698.745	94.29
698.929	50.97
699.114	83.18
699.298	110.58
699.483	209.44
699.668	-25.49
699.852	-101.39
700.037	14.5
700.221	-68.25
700.405	184.82
700.59	172.41
700.774	44.68
700.959	17.83
701.143	36.35
701.328	122.06
701.512	-51.59
701.696	-18.82
701.881	61.52
702.065	-28.45
702.249	-3.27
702.433	155.38
702.618	62.08
702.802	97.07
702.986	87.26
703.17	562.29
703.355	-11.79
703.539	-36.22
703.723	124.28
703.907	37.64
704.091	203.15
704.275	37.64
704.46	-54.37
704.644	112.43
704.828	9.69
705.012	-17.34
705.196	70.22
705.38	-43.26
705.564	270.16
705.748	26.35
705.932	147.61
706.116	16.17
706.3	19.31
706.484	16.17
706.668	146.13
706.851	99.66
707.035	190.74
707.219	160.01
707.403	97.44
707.587	28.39
707.771	142.98
707.954	20.98
708.138	138.72
708.322	59.67
708.506	-11.97
708.689	64.12
708.873	-62.7
709.057	40.42
709.241	210.74
709.424	51.16
709.608	141.31
709.792	-14.19
709.975	42.46
710.159	-38.07
710.342	48.93
710.526	133.35
710.709	107.06
710.893	22.28
711.077	104.29
711.26	107.62
711.443	41.53
711.627	179.82
711.81	205.92
711.994	-4.57
712.177	20.06
712.361	80.78
712.544	-44
712.727	87.63
712.911	90.22
713.094	69.11
713.277	85.59
713.461	117.99
713.644	43.2
713.827	201.29
714.011	-14.19
714.194	39.86
714.377	75.41
714.56	146.13
714.743	116.69
714.927	89.66
715.11	80.59
715.293	8.02
715.476	117.8
715.659	116.69
715.842	68
716.025	-46.4
716.208	62.08
716.391	181.86
716.575	132.06
716.758	151.68
716.941	35.79
717.124	77.63
717.306	73.19
717.489	-25.49
717.672	27.09
717.855	94.29
718.038	-3.27
718.221	130.02
718.404	-67.69
718.587	-45.11
718.77	-16.04
718.952	67.26
719.135	117.06
719.318	18.39
719.501	-6.97
719.684	81.7
719.866	111.14
720.049	104.29
720.232	73.93
720.414	174.64
720.597	158.9
720.78	52.27
720.962	78
721.145	112.62
721.328	68.56
721.51	9.5
721.693	34.31
721.875	40.05
722.058	-58.81
722.24	51.16
722.423	206.11
722.605	-16.97
722.788	3.95
722.97	104.29
723.153	31.16
723.335	-59.18
723.518	22.83
723.7	151.68
723.882	71.71
724.065	63.56
724.247	-1.42
724.429	72.08
724.612	121.32
724.794	-35.67
724.976	86.7
725.159	75.96
725.341	95.22
725.523	52.27
725.705	56.15
725.888	277.38
726.07	8.02
726.252	-54.18
726.434	-18.27
726.616	55.23
726.798	-81.95
726.98	60.78
727.162	8.58
727.345	167.23
727.527	27.46
727.709	12.09
727.891	110.95
728.073	114.47
728.255	10.61
728.437	194.07
728.619	3.02
728.801	82.07
728.982	-13.45
729.164	20.61
729.346	84.29
729.528	120.02
729.71	-41.59
729.892	37.83
730.074	113.91
730.255	146.68
730.437	31.72
730.619	57.27
730.801	326.25
730.983	72.82
731.164	155.94
731.346	180.74
731.528	20.43
731.709	101.33
731.891	-7.34
732.073	16.72
732.254	145.94
732.436	31.35
732.617	-12.9
732.799	137.06
732.981	91.7
733.162	76.52
733.344	-40.67
733.525	53.19
733.707	132.61
733.888	32.46
734.07	21.72
734.251	28.76
734.433	49.12
734.614	56.34
734.795	142.24
734.977	122.99
735.158	21.35
735.34	153.72
735.521	55.78
735.702	4.32
735.883	107.43
736.065	42.64
736.246	107.62
736.427	125.02
736.609	171.12
736.79	11.17
736.971	-14.75
737.152	16.54
737.333	73.74
737.514	45.97
737.696	186.48
737.877	11.35
738.058	3.39
738.239	32.83
738.42	98.92
738.601	41.72
738.782	50.23
738.963	143.53
739.144	32.46
739.325	131.13
739.506	92.44
739.687	6.36
739.868	213.33
740.049	85.78
740.23	85.59
740.411	109.47
740.592	92.99
740.773	-45.29
740.953	75.41
741.134	71.71
741.315	53.38
741.496	60.41
741.677	40.42
741.857	97.25
742.038	-65.84
742.219	20.06
742.4	45.42
742.58	-34.19
742.761	75.96
742.942	52.45
743.122	42.64
743.303	24.31
743.484	-13.64
743.664	52.45
743.845	100.03
744.025	128.17
744.206	69.3
744.386	87.63
744.567	-64.92
744.748	82.81
744.928	250.72
745.108	144.27
745.289	40.23
745.469	43.2
745.65	220.55
745.83	19.5
746.011	33.38
746.191	131.87
746.371	-28.08
746.552	95.77
746.732	63.75
746.912	175.93
747.093	97.25
747.273	89.85
747.453	12.47
747.633	185.74
747.814	-36.78
747.994	95.59
748.174	144.27
748.354	52.08
748.534	48.75
748.715	60.97
748.895	161.31
749.075	-20.67
749.255	198.15
749.435	35.42
749.615	132.61
749.795	96.7
749.975	126.5
750.155	74.67
750.335	73.19
750.515	89.48
750.695	112.62
750.875	72.26
751.055	102.62
751.235	16.17
751.415	117.25
751.595	16.35
751.775	152.98
751.954	37.27
752.134	151.87
752.314	157.42
752.494	146.13
752.674	12.28
752.854	146.68
753.033	3.95
753.213	34.68
753.393	-30.67
753.572	81.52
753.752	-17.34
753.932	60.41
754.111	57.27
754.291	78.37
754.471	71.15
754.65	48.38
754.83	48.01
755.01	69.11
755.189	26.9
755.369	5.43
755.548	89.29
755.728	90.22
755.907	116.32
756.087	6.36
756.266	201.85
756.446	-30.3
756.625	35.98
756.804	354.76
756.984	-3.27
757.163	36.53
757.343	51.16
757.522	-79.36
757.701	27.28
757.881	108.55
758.06	-33.82
758.239	1.73
758.418	160.01
758.598	177.04
758.777	84.48
758.956	74.67
759.135	58.56
759.315	39.68
759.494	258.31
759.673	100.4
759.852	19.87
760.031	7.1
760.21	3.95
760.389	-71.03
760.568	24.5
760.748	73.37
760.927	-6.23
761.106	72.82
761.285	81.15
761.464	6.17
761.643	136.68
761.822	124.84
762	136.68
762.179	3.76
762.358	42.64
762.537	69.85
762.716	28.76
762.895	19.13
763.074	64.12
763.253	154.83
763.431	-15.86
763.61	91.88
763.789	70.96
763.968	20.61
764.147	72.82
764.325	63.19
764.504	60.78
764.683	29.5
764.861	107.81
765.04	48.38
765.219	13.76
765.397	31.35
765.576	187.59
765.755	147.42
765.933	35.79
766.112	147.79
766.29	58.93
766.469	-2.34
766.647	59.49
766.826	80.59
767.004	62.82
767.183	126.5
767.361	127.24
767.54	218.51
767.718	207.96
767.897	45.05
768.075	10.24
768.253	18.2
768.432	112.06
768.61	58.19
768.788	30.98
768.967	106.14
769.145	28.39
769.323	149.83
769.501	8.21
769.68	55.23
769.858	109.29
770.036	6.17
770.214	145.2
770.393	27.46
770.571	98.36
770.749	-38.26
770.927	-47.7
771.105	180.74
771.283	32.27
771.461	51.71
771.639	134.46
771.817	30.05
771.995	-4.57
772.173	159.83
772.351	50.05
772.529	133.17
772.707	183.15
772.885	54.12
773.063	228.32
773.241	232.95
773.419	53.56
773.597	109.84
773.775	17.28
773.953	24.31
774.131	45.6
774.308	181.12
774.486	176.3
774.664	119.84
774.842	62.26
775.02	196.85
775.197	197.96
775.375	147.24
775.553	7.84
775.73	31.9
775.908	134.83
776.086	135.39
776.263	95.59
776.441	159.27
776.619	-41.04
776.796	43.01
776.974	111.88
777.151	23.2
777.329	48.38
777.506	184.08
777.684	20.24
777.861	100.03
778.039	130.21
778.216	178.71
778.394	159.46
778.571	164.64
778.749	-28.45
778.926	79.48
779.103	41.9
779.281	84.66
779.458	186.48
779.635	129.84
779.813	133.17
779.99	53.56
780.167	22.28
780.345	224.8
780.522	226.84
780.699	57.08
780.876	45.97
781.054	112.06
781.231	46.53
781.408	115.95
781.585	83.74
781.762	28.76
781.939	84.29
782.116	101.51
782.294	159.83
782.471	-10.31
782.648	49.12
782.825	35.98
783.002	92.81
783.179	117.99
783.356	6.73
783.533	64.67
783.71	47.82
783.887	159.64
784.064	161.68
784.24	45.79
784.417	80.04
784.594	55.97
784.771	100.03
784.948	207.03
785.125	-0.12
785.302	54.86
785.478	330.51
785.655	44.12
785.832	-19.01
786.009	100.77
786.185	86.7
786.362	192.78
786.539	23.57
786.715	329.4
786.892	112.43
787.069	256.65
787.245	144.83
787.422	88.55
787.599	150.94
787.775	122.99
787.952	36.35
788.128	182.41
788.305	106.32
788.481	65.78
788.658	31.72
788.834	156.31
789.011	41.72
789.187	172.6
789.364	30.61
789.54	220.18
789.717	157.97
789.893	-38.26
790.069	127.8
790.246	30.79
790.422	117.99
790.598	101.33
790.775	91.88
790.951	200.18
791.127	126.5
791.304	53.19
791.48	-1.6
791.656	95.96
791.832	116.69
792.008	57.82
792.185	71.52
792.361	101.7
792.537	89.29
792.713	152.98
792.889	133.35
793.065	145.76
793.241	115.77
793.417	96.7
793.593	-7.53
793.769	97.81
793.945	8.39
794.121	85.78
794.297	108.18
794.473	82.44
794.649	192.59
794.825	103.73
795.001	132.61
795.177	-52.7
795.353	141.5
795.529	103.55
795.705	116.14
795.881	101.33
796.056	93.37
796.232	93.18
796.408	181.12
796.584	81.52
796.76	117.62
796.935	45.42
797.111	43.57
797.287	12.28
797.462	148.16
797.638	206.11
797.814	50.23
797.989	79.3
798.165	153.35
798.341	314.04
798.516	67.26
798.692	152.98
798.867	200.18
799.043	126.87
799.218	192.96
799.394	89.48
799.569	358.47
799.745	121.69
799.92	136.5
800.096	134.09
800.271	146.87
800.447	369.94
800.622	135.2
800.797	-6.79
800.973	-13.08
801.148	132.06
801.323	157.23
801.499	42.27
801.674	2.1
801.849	185.19
802.025	111.69
802.2	263.13
802.375	180.19
802.55	226.29
802.725	25.79
802.901	93.37
803.076	125.58
803.251	110.03
803.426	88.37
803.601	193.52
803.776	6.73
803.951	23.39
804.127	54.49
804.302	77.63
804.477	94.85
804.652	191.48
804.827	10.24
805.002	4.69
805.177	148.9
805.352	272.01
805.526	143.35
805.701	260.53
805.876	137.98
806.051	71.52
806.226	141.31
806.401	181.67
806.576	107.81
806.751	105.4
806.925	64.12
807.1	120.95
807.275	32.46
807.45	76.52
807.625	439.18
807.799	169.82
807.974	103.55
808.149	8.02
808.323	104.47
808.498	167.05
808.673	130.02
808.847	-7.16
809.022	114.84
809.197	187.04
809.371	63.19
809.546	164.64
809.72	85.22
809.895	130.76
810.069	-53.25
810.244	245.54
810.418	24.5
810.593	226.29
810.767	186.85
810.942	180.56
811.116	301.82
811.29	169.82
811.465	77.63
811.639	144.09
811.814	244.8
811.988	259.42
812.162	182.78
812.337	48.38
812.511	194.26
812.685	139.83
812.859	132.61
813.034	152.61
813.208	142.24
813.382	37.27
813.556	151.49
813.73	193.89
813.905	59.49
814.079	64.12
814.253	135.57
814.427	230.73
814.601	51.34
814.775	118.36
814.949	52.64
815.123	157.42
815.297	35.24
815.471	21.91
815.645	47.64
815.819	119.28
815.993	79.48
816.167	69.11
816.341	99.66
816.515	115.21
816.689	-23.82
816.863	97.62
817.037	84.29
817.21	121.32
817.384	99.66
817.558	132.43
817.732	219.62
817.906	128.91
818.079	-43.81
818.253	193.89
818.427	-5.68
818.601	127.24
818.774	189.26
818.948	103.92
819.122	257.2
819.295	125.21
819.469	95.77
819.643	121.5
819.816	72.82
819.99	165.93
820.163	47.82
820.337	22.09
820.511	214.44
820.684	153.53
820.858	170.93
821.031	41.16
821.205	114.65
821.378	145.57
821.551	138.72
821.725	140.02
821.898	82.63
822.072	159.09
822.245	216.84
822.418	147.42
822.592	9.13
822.765	61.89
822.938	186.67
823.112	69.67
823.285	190.37
823.458	99.47
823.631	100.96
823.805	122.06
823.978	144.09
824.151	118.17
824.324	166.68
824.497	178.34
824.671	95.96
824.844	127.43
825.017	95.59
825.19	-79.36
825.363	-46.78
825.536	111.32
825.709	80.78
825.882	103.73
826.055	97.25
826.228	-67.69
826.401	86.33
826.574	61.71
826.747	109.29
826.92	156.49
827.093	126.69
827.266	138.35
827.439	96.51
827.612	33.2
827.785	48.75
827.957	101.7
828.13	109.47
828.303	116.14
828.476	98.92
828.649	40.42
828.821	234.62
828.994	132.43
829.167	58.01
829.34	259.05
829.512	153.9
829.685	243.5
829.858	139.65
830.03	162.6
830.203	212.22
830.375	267.38
830.548	143.35
830.721	124.65
830.893	65.41
831.066	121.69
831.238	140.02
831.411	233.14
831.583	119.28
831.756	178.89
831.928	48.19
832.101	133.35
832.273	105.4
832.446	70.59
832.618	148.53
832.79	138.35
832.963	-27.52
833.135	70.04
833.307	83
833.48	172.97
833.652	97.25
833.824	251.28
833.997	127.24
834.169	157.79
834.341	117.43
834.513	27.65
834.686	73.19
834.858	133.54
835.03	125.76
835.202	33.75
835.374	33.2
835.546	126.69
835.718	57.64
835.891	119.65
836.063	76.89
836.235	125.76
836.407	88.92
836.579	164.82
836.751	-6.6
836.923	93.37
837.095	159.83
837.267	110.95
837.439	134.28
837.611	42.83
837.782	105.77
837.954	140.2
838.126	122.8
838.298	203.7
838.47	230.54
838.642	21.35
838.814	200.37
838.985	46.9
839.157	23.39
839.329	-22.71
839.501	203.15
839.672	4.32
839.844	160.94
840.016	52.64
840.188	207.4
840.359	132.43
840.531	81.7
840.702	27.09
840.874	302.74
841.046	17.28
841.217	40.97
841.389	66.34
841.56	117.8
841.732	-28.45
841.903	105.58
842.075	25.42
842.246	76.7
842.418	207.77
842.589	102.62
842.761	137.06
842.932	81.33
843.104	232.02
843.275	117.8
843.446	28.76
843.618	30.42
843.789	158.71
843.96	-50.48
844.132	91.14
844.303	117.25
844.474	45.6
844.646	135.94
844.817	-14.38
844.988	44.31
845.159	241.65
845.331	190.19
845.502	2.1
845.673	87.44
845.844	-30.48
846.015	173.71
846.186	53.01
846.357	97.25
846.528	106.69
846.7	18.39
846.871	63.56
847.042	55.97
847.213	151.87
847.384	423.82
847.555	157.23
847.726	18.94
847.897	182.23
848.067	-47.7
848.238	173.15
848.409	92.25
848.58	145.76
848.751	132.8
848.922	99.1
849.093	131.69
849.264	74.48
849.434	139.09
849.605	48.93
849.776	21.72
849.947	-8.82
850.117	58.19
850.288	148.16
850.459	47.64
850.63	151.12
850.8	146.31
850.971	241.65
851.142	29.68
851.312	-130.08
851.483	-19.93
851.653	81.33
851.824	96.14
851.995	29.87
852.165	171.86
852.336	70.59
852.506	169.64
852.677	180.93
852.847	75.22
853.018	97.25
853.188	36.35
853.358	177.6
853.529	158.34
853.699	134.65
853.87	90.03
854.04	-60.1
854.21	65.04
854.381	81.52
854.551	194.07
854.721	42.27
854.892	127.06
855.062	-20.12
855.232	16.91
855.402	122.8
855.573	86.33
855.743	111.69
855.913	37.27
856.083	54.49
856.253	147.98
856.423	-9.01
856.594	50.6
856.764	126.5
856.934	94.29
857.104	43.57
857.274	197.04
857.444	28.76
857.614	33.57
857.784	122.24
857.954	5.62
858.124	1.17
858.294	-16.41
858.464	183.15
858.634	4.87
858.804	124.28
858.974	-8.27
859.143	-6.42
859.313	-26.41
859.483	107.43
859.653	-21.04
859.823	99.66
859.993	0.43
860.162	122.99
860.332	121.32
860.502	42.27
860.672	137.43
860.841	140.76
861.011	66.52
861.181	-17.71
861.35	225.18
861.52	87.44
861.69	106.14
861.859	115.77
862.029	42.09
862.198	65.41
862.368	106.32
862.538	61.15
862.707	94.85
862.877	121.32
863.046	129.65
863.216	-7.16
863.385	122.43
863.555	107.62
863.724	196.67
863.893	52.27
864.063	270.16
864.232	258.5
864.402	41.9
864.571	41.34
864.74	89.85
864.91	-22.52
865.079	116.32
865.248	117.25
865.418	146.13
865.587	89.48
865.756	96.14
865.925	110.4
866.094	270.9
866.264	136.13
866.433	53.19
866.602	123.54
866.771	13.76
866.94	107.62
867.109	20.8
867.278	120.95
867.448	44.68
867.617	31.35
867.786	157.42
867.955	48.19
868.124	37.09
868.293	64.49
868.462	22.09
868.631	153.72
868.8	248.69
868.969	91.14
869.137	120.58
869.306	102.44
869.475	111.51
869.644	1.73
869.813	27.83
869.982	128.54
870.151	68.74
870.319	47.45
870.488	55.41
870.657	112.62
870.826	8.39
870.995	28.39
871.163	28.2
871.332	119.84
871.501	106.88
871.669	25.05
871.838	148.35
872.007	169.64
872.175	99.1
872.344	32.27
872.512	-84.54
872.681	59.12
872.85	155.38
873.018	65.6
873.187	3.39
873.355	207.4
873.524	0.62
873.692	113.36
873.861	112.62
874.029	64.86
874.197	144.27
874.366	164.64
874.534	93.92
874.703	-6.97
874.871	74.48
875.039	-4.01
875.208	7.1
875.376	144.27
875.544	199.63
875.713	87.26
875.881	56.71
876.049	131.32
876.217	126.13
876.386	94.11
876.554	90.22
876.722	196.48
876.89	192.78
877.058	95.4
877.226	93.18
877.395	43.38
877.563	54.12
877.731	58.75
877.899	52.82
878.067	38.75
878.235	40.6
878.403	25.79
878.571	79.85
878.739	51.34
878.907	195.55
879.075	141.68
879.243	34.87
879.411	-44.18
879.579	25.05
879.747	71.34
879.914	47.82
880.082	20.43
880.25	37.83
880.418	84.48
880.586	-26.78
880.754	135.57
880.921	115.21
881.089	25.42
881.257	81.33
881.425	72.63
881.592	91.33
881.76	45.42
881.928	215.55
882.095	117.8
882.263	146.31
882.431	27.83
882.598	267.94
882.766	27.09
882.933	41.72
883.101	9.87
883.269	46.71
883.436	105.4
883.604	65.78
883.771	220.92
883.939	14.69
884.106	-29.93
884.273	143.9
884.441	68.19
884.608	11.54
884.776	168.16
884.943	217.96
885.11	-11.79
885.278	-26.6
885.445	62.26
885.613	106.32
885.78	7.28
885.947	18.02
886.114	159.27
886.282	136.5
886.449	80.78
886.616	119.1
886.783	27.09
886.951	71.15
887.118	-7.71
887.285	197.78
887.452	26.9
887.619	25.98
887.786	-122.31
887.953	29.68
888.12	16.91
888.287	156.68
888.455	137.98
888.622	41.72
888.789	59.3
888.956	94.85
889.123	23.94
889.29	-3.27
889.456	67.26
889.623	37.27
889.79	63.75
889.957	109.66
890.124	80.96
890.291	130.21
890.458	48.01
890.625	201.85
890.791	111.32
890.958	21.54
891.125	175.01
891.292	110.4
891.459	49.12
891.625	109.84
891.792	134.65
891.959	-80.47
892.125	-12.34
892.292	-5.49
892.459	50.05
892.625	147.98
892.792	175.93
892.959	-43.63
893.125	260.16
893.292	-16.23
893.458	143.35
893.625	121.32
893.791	90.03
893.958	0.62
894.124	137.61
894.291	15.8
894.457	80.78
894.624	77.26
894.79	99.84
894.957	82.07
895.123	68.37
895.289	105.21
895.456	203.89
895.622	40.79
895.788	82.63
895.955	47.27
896.121	188.33
896.287	329.22
896.454	58.93
896.62	40.05
896.786	70.78
896.952	116.32
897.119	129.65
897.285	131.87
897.451	3.02
897.617	139.83
897.783	131.5
897.949	16.54
898.115	64.3
898.281	-33.26
898.448	184.82
898.614	25.05
898.78	74.11
898.946	109.47
899.112	215.18
899.278	-29
899.444	41.9
899.61	239.99
899.775	90.96
899.941	90.77
900.107	46.9
900.273	77.63
900.439	109.66
900.605	76.33
900.771	119.65
900.937	122.62
901.102	204.44
901.268	132.06
901.434	47.82
901.6	117.62
901.766	147.42
901.931	187.41
902.097	103.92
902.263	141.5
902.428	150.01
902.594	-18.27
902.76	61.71
902.925	36.9
903.091	163.53
903.256	25.24
903.422	187.78
903.588	3.76
903.753	53.56
903.919	144.09
904.084	121.13
904.25	55.04
904.415	247.21
904.581	44.49
904.746	237.76
904.912	100.21
905.077	74.11
905.242	-14.19
905.408	33.57
905.573	98.18
905.738	93.74
905.904	722.79
906.069	722.79
