Data from FLMT087451__14__14-05-12-244.txt Node

Date: Tue Jun 04 14:05:12 JST 2024
User: power
Spectrometer: FLMT08745
Trigger mode: 0
Integration Time (sec): 2.000000E-1
Scans to average: 11
Electric dark correction enabled: true
Nonlinearity correction enabled: false
Boxcar width: 0
XAxis mode: Wavelengths
Number of Pixels in Spectrum: 3648
>>>>>Begin Spectral Data<<<<<
194.923	-322
195.148	-322
195.372	-322
195.597	-341.99
195.821	-317.74
196.046	77.69
196.271	-76.89
196.495	-111.51
196.72	1.05
196.944	-47.45
197.169	-14.87
197.393	97.5
197.618	24.19
197.842	70.29
198.067	-6.91
198.291	-91.88
198.516	78.8
198.74	-117.25
198.964	86.95
199.189	17.53
199.413	116.57
199.637	79.17
199.862	-3.76
200.086	17.16
200.31	161.37
200.535	20.67
200.759	201.54
200.983	-82.63
201.207	-60.97
201.432	11.23
201.656	123.42
201.88	-2.28
202.104	-34.68
202.328	71.4
202.552	99.91
202.777	45.66
203.001	48.26
203.225	-28.2
203.449	-137.98
203.673	32.71
203.897	1.23
204.121	8.08
204.345	108.05
204.569	-59.49
204.793	18.08
205.017	23.26
205.241	60.47
205.465	-34.31
205.689	-22.83
205.912	30.11
206.136	-57.82
206.36	19.01
206.584	73.25
206.808	-77.07
207.032	98.24
207.255	69.55
207.479	84.91
207.703	-5.8
207.927	7.34
208.15	-61.71
208.374	-24.31
208.598	-76.89
208.822	-13.39
209.045	-22.65
209.269	35.11
209.492	211.91
209.716	114.9
209.94	41.96
210.163	88.61
210.387	108.42
210.61	83.62
210.834	-43.94
211.057	2.16
211.281	-61.34
211.504	-46.34
211.728	-29.5
211.951	154.89
212.175	166
212.398	-30.05
212.622	-9.13
212.845	197.1
213.068	29
213.292	30.11
213.515	-24.87
213.738	-16.72
213.962	-19.69
214.185	-65.97
214.408	34.37
214.631	115.83
214.855	33.26
215.078	-12.47
215.301	64.73
215.524	-4.5
215.747	56.77
215.971	-40.6
216.194	-7.84
216.417	-2.65
216.64	72.14
216.863	711.01
217.086	74.73
217.309	-23.76
217.532	86.76
217.755	-61.34
217.978	62.14
218.201	118.6
218.424	119.16
218.647	-31.9
218.87	-17.46
219.093	89.35
219.316	141.56
219.539	5.31
219.762	-30.24
219.985	16.97
220.207	-169.82
220.43	47.15
220.653	51.59
220.876	-21.54
221.099	170.07
221.321	-6.36
221.544	-1.54
221.767	54.37
221.99	-13.95
222.212	38.26
222.435	71.21
222.658	121.75
222.88	-89.11
223.103	156.37
223.326	-109.29
223.548	64.92
223.771	-6.73
223.993	-17.83
224.216	-15.24
224.438	1.42
224.661	25.67
224.883	56.59
225.106	174.51
225.328	-37.64
225.551	76.21
225.773	-28.2
225.996	2.34
226.218	33.26
226.44	81.95
226.663	37.7
226.885	-16.72
227.108	47.33
227.33	45.85
227.552	21.78
227.774	34.93
227.997	41.96
228.219	24.93
228.441	122.68
228.663	169.14
228.886	0.49
229.108	-23.02
229.33	7.53
229.552	-42.64
229.774	77.88
229.996	27.34
230.219	94.17
230.441	-10.24
230.663	58.81
230.885	-32.46
231.107	17.53
231.329	47.7
231.551	96.2
231.773	-13.21
231.995	46.22
232.217	9.38
232.439	-9.5
232.661	22.52
232.883	4.75
233.105	-25.98
233.326	-27.65
233.548	127.68
233.77	6.79
233.992	131.75
234.214	-33.01
234.436	-72.26
234.657	42.52
234.879	190.99
235.101	-107.81
235.323	37.15
235.544	-3.21
235.766	50.11
235.988	87.5
236.21	73.06
236.431	131.75
236.653	94.54
236.874	127.49
237.096	54
237.318	-109.47
237.539	66.03
237.761	-3.76
237.982	8.82
238.204	166.55
238.425	-29.87
238.647	32.52
238.868	-33.75
239.09	83.8
239.311	-85.96
239.533	11.97
239.754	93.43
239.975	1.23
240.197	-6.36
240.418	9.94
240.64	75.1
240.861	40.11
241.082	72.32
241.304	34.74
241.525	-14.69
241.746	9.01
241.967	-117.99
242.189	26.41
242.41	107.13
242.631	277.07
242.852	-50.05
243.073	108.79
243.294	-15.61
243.516	52.33
243.737	28.63
243.958	-45.42
244.179	13.45
244.4	183.95
244.621	-48.01
244.842	8.08
245.063	125.45
245.284	34
245.505	39.93
245.726	24.75
245.947	103.61
246.168	11.6
246.389	1.23
246.61	72.32
246.831	131.01
247.052	-9.5
247.272	28.26
247.493	-2.47
247.714	126.19
247.935	-82.63
248.156	91.39
248.376	83.99
248.597	89.91
248.818	25.12
249.039	-22.09
249.259	-1.17
249.48	-68.74
249.701	74.73
249.921	-32.83
250.142	-27.46
250.363	94.17
250.583	26.78
250.804	63.07
251.025	141
251.245	120.64
251.466	103.98
251.686	30.67
251.907	-43.2
252.127	95.28
252.348	66.58
252.568	-9.69
252.789	112.12
253.009	78.43
253.23	178.21
253.45	42.7
253.67	91.21
253.891	-33.38
254.111	138.97
254.331	62.51
254.552	18.82
254.772	66.58
254.992	31.78
255.213	-35.61
255.433	90.46
255.653	-4.87
255.873	67.69
256.093	103.98
256.314	-22.28
256.534	-41.72
256.754	159.52
256.974	18.08
257.194	-7.28
257.414	-0.43
257.634	55.11
257.855	-1.36
258.075	-31.16
258.295	7.71
258.515	-45.97
258.735	78.43
258.955	20.12
259.175	-9.69
259.395	26.41
259.615	87.69
259.835	74.54
260.054	16.41
260.274	74.36
260.494	69.36
260.714	223.39
260.934	69.55
261.154	69.73
261.374	6.97
261.593	30.85
261.813	-75.78
262.033	7.16
262.253	6.79
262.472	47.15
262.692	31.22
262.912	88.24
263.132	61.96
263.351	77.32
263.571	175.62
263.791	49.18
264.01	168.59
264.23	42.15
264.449	-14.5
264.669	182.47
264.888	155.26
265.108	35.67
265.328	168.22
265.547	53.44
265.767	86.02
265.986	-69.85
266.205	83.25
266.425	18.45
266.644	71.58
266.864	-69.67
267.083	131.56
267.303	8.27
267.522	57.51
267.741	48.63
267.961	122.31
268.18	-15.24
268.399	95.65
268.618	23.63
268.838	136.56
269.057	35.85
269.276	37.15
269.495	59.55
269.715	169.14
269.934	-32.27
270.153	117.68
270.372	-37.64
270.591	103.05
270.81	114.9
271.029	75.84
271.249	73.25
271.468	-22.83
271.687	126.38
271.906	63.62
272.125	124.53
272.344	121.01
272.563	26.41
272.782	20.49
273.001	-35.24
273.22	46.4
273.439	78.06
273.657	70.84
273.876	102.87
274.095	-81.15
274.314	123.05
274.533	161.18
274.752	10.68
274.971	85.28
275.189	185.06
275.408	112.87
275.627	33.63
275.846	115.46
276.064	40.67
276.283	-82.81
276.502	75.1
276.72	-21.72
276.939	1.6
277.158	9.56
277.376	5.86
277.595	63.07
277.814	44.18
278.032	112.68
278.251	-30.79
278.469	-25.98
278.688	55.11
278.906	191.17
279.125	26.04
279.343	12.53
279.562	20.86
279.78	-92.81
279.999	32.52
280.217	46.78
280.435	24.37
280.654	-49.12
280.872	99.35
281.091	79.54
281.309	57.14
281.527	125.45
281.746	36.41
281.964	-17.65
282.182	41.41
282.4	50.48
282.619	175.07
282.837	140.63
283.055	-21.17
283.273	-3.76
283.491	34
283.71	82.87
283.928	17.34
284.146	11.97
284.364	48.63
284.582	29
284.8	48.26
285.018	33.08
285.236	-77.07
285.454	147.3
285.672	92.32
285.89	7.53
286.108	-26.53
286.326	38.07
286.544	62.14
286.762	-13.58
286.98	-95.4
287.198	190.06
287.416	304.66
287.634	126.75
287.851	31.78
288.069	44.55
288.287	23.45
288.505	-31.72
288.723	67.51
288.94	55.48
289.158	27.34
289.376	169.88
289.594	47.15
289.811	-12.84
290.029	-0.43
290.247	203.58
290.464	85.65
290.682	-53.01
290.9	77.69
291.117	87.69
291.335	39.93
291.552	-65.04
291.77	61.77
291.987	-3.76
292.205	31.78
292.422	45.66
292.64	132.86
292.857	-43.75
293.075	51.96
293.292	9.19
293.51	47.15
293.727	27.71
293.945	28.45
294.162	20.67
294.379	50.29
294.597	55.48
294.814	42.33
295.031	56.22
295.249	104.9
295.466	67.14
295.683	14.93
295.9	71.77
296.118	-20.98
296.335	-50.05
296.552	76.4
296.769	128.23
296.986	78.43
297.204	32.15
297.421	28.63
297.638	57.51
297.855	100.46
298.072	-27.28
298.289	85.47
298.506	-12.28
298.723	122.31
298.94	55.11
299.157	53.44
299.374	32.34
299.591	134.34
299.808	-38.01
300.025	-44.12
300.242	-14.32
300.459	73.99
300.676	-42.27
300.893	-18.39
301.109	73.62
301.326	141
301.543	65.66
301.76	7.9
301.977	-14.13
302.193	-29.13
302.41	145.08
302.627	-57.08
302.844	-13.58
303.06	-1.54
303.277	39.56
303.494	39.74
303.71	35.67
303.927	90.28
304.144	11.23
304.36	63.07
304.577	3.46
304.793	90.65
305.01	-8.95
305.227	19.19
305.443	55.29
305.66	233.75
305.876	-73.19
306.093	-18.02
306.309	45.29
306.526	-75.96
306.742	89.35
306.958	58.62
307.175	66.58
307.391	-3.58
307.608	113.42
307.824	110.83
308.04	80.84
308.257	31.97
308.473	209.5
308.689	-19.87
308.905	123.79
309.122	-43.94
309.338	-36.35
309.554	72.88
309.77	53.62
309.986	69.92
310.203	-108.55
310.419	21.04
310.635	52.51
310.851	-43.57
311.067	129.34
311.283	53.62
311.499	-75.04
311.715	19.01
311.931	107.87
312.147	73.8
312.363	-86.15
312.579	109.9
312.795	118.6
313.011	-52.45
313.227	-19.31
313.443	148.22
313.659	70.1
313.875	18.08
314.091	95.46
314.307	119.53
314.523	4.01
314.738	25.67
314.954	143.78
315.17	-4.69
315.386	44.92
315.602	-24.5
315.817	-0.8
316.033	30.48
316.249	6.79
316.465	53.44
316.68	-7.47
316.896	71.21
317.112	-20.61
317.327	-31.16
317.543	271.89
317.758	4.2
317.974	108.61
318.19	101.94
318.405	6.42
318.621	28.26
318.836	1.05
319.052	-39.68
319.267	84.54
319.483	-7.47
319.698	59.18
319.914	1.42
320.129	6.05
320.344	139.15
320.56	85.1
320.775	160.44
320.99	86.58
321.206	77.32
321.421	94.72
321.636	30.11
321.852	73.43
322.067	39
322.282	-43.2
322.498	3.46
322.713	118.42
322.928	124.16
323.143	3.46
323.358	50.85
323.574	167.29
323.789	9.56
324.004	4.2
324.219	30.11
324.434	129.34
324.649	26.6
324.864	91.39
325.079	17.9
325.294	-6.91
325.509	-33.94
325.724	108.98
325.939	-7.28
326.154	83.62
326.369	263.19
326.584	25.12
326.799	-9.32
327.014	162.66
327.229	-3.95
327.444	58.07
327.659	-6.17
327.873	37.52
328.088	107.31
328.303	29.56
328.518	-24.5
328.733	-30.61
328.947	64.36
329.162	-37.09
329.377	40.67
329.591	106.57
329.806	-15.43
330.021	-34.5
330.235	118.05
330.45	52.33
330.665	-83.55
330.879	-5.62
331.094	69.55
331.309	36.22
331.523	63.07
331.738	56.96
331.952	65.1
332.167	134.9
332.381	-85.4
332.596	42.33
332.81	-33.57
333.025	-41.16
333.239	114.72
333.453	1.05
333.668	41.59
333.882	90.46
334.097	45.48
334.311	52.7
334.525	51.4
334.74	44.18
334.954	-23.57
335.168	148.96
335.382	55.11
335.597	49
335.811	-53.01
336.025	18.08
336.239	-77.44
336.453	41.22
336.668	62.7
336.882	-51.71
337.096	73.62
337.31	65.1
337.524	96.39
337.738	34.37
337.952	41.78
338.166	28.82
338.38	46.96
338.594	112.12
338.808	-8.02
339.022	187.1
339.236	61.77
339.45	33.63
339.664	223.39
339.878	89.54
340.092	-18.94
340.306	-56.53
340.52	76.21
340.734	100.83
340.948	41.78
341.161	60.29
341.375	63.25
341.589	49.55
341.803	37.33
342.017	50.29
342.23	21.97
342.444	164.15
342.658	34.19
342.871	89.54
343.085	9.75
343.299	-58.38
343.512	0.31
343.726	-26.72
343.94	77.14
344.153	101.76
344.367	110.83
344.58	-0.99
344.794	24.93
345.008	-40.6
345.221	-8.02
345.435	52.51
345.648	51.4
345.862	-6.54
346.075	34.37
346.288	1.97
346.502	111.2
346.715	61.22
346.929	-102.99
347.142	105.09
347.355	53.62
347.569	91.02
347.782	77.88
347.995	68.62
348.209	17.9
348.422	-76.33
348.635	49.74
348.848	77.14
349.062	-17.09
349.275	177.47
349.488	104.35
349.701	113.42
349.914	-127.24
350.128	72.14
350.341	27.71
350.554	-106.51
350.767	7.53
350.98	64.36
351.193	-8.39
351.406	-31.16
351.619	35.11
351.832	79.91
352.045	1.42
352.258	-20.24
352.471	21.78
352.684	24.75
352.897	81.02
353.11	-3.76
353.323	93.06
353.536	-82.07
353.748	134.9
353.961	-33.57
354.174	-10.43
354.387	41.78
354.6	-63.19
354.813	-26.53
355.025	81.02
355.238	89.35
355.451	31.41
355.664	47.52
355.876	95.28
356.089	138.04
356.302	2.34
356.514	40.67
356.727	9.75
356.94	4.01
357.152	-42.09
357.365	27.89
357.577	-33.75
357.79	-6.17
358.002	-105.58
358.215	-58.93
358.427	-0.43
358.64	146.37
358.852	-33.75
359.065	-12.28
359.277	-2.84
359.49	153.96
359.702	150.82
359.915	13.08
360.127	-27.46
360.339	-15.61
360.552	-18.76
360.764	24.56
360.976	87.13
361.189	-40.42
361.401	127.31
361.613	145.08
361.825	-77.44
362.038	37.89
362.25	127.12
362.462	58.99
362.674	-19.31
362.886	145.26
363.099	91.39
363.311	114.72
363.523	49.74
363.735	109.72
363.947	54.18
364.159	120.09
364.371	105.09
364.583	33.08
364.795	15.3
365.007	68.81
365.219	7.9
365.431	35.11
365.643	-14.13
365.855	-35.24
366.067	-93.74
366.279	-21.54
366.491	12.34
366.703	3.64
366.914	28.08
367.126	26.97
367.338	107.68
367.55	63.44
367.762	33.63
367.974	-7.65
368.185	-35.79
368.397	64.36
368.609	81.76
368.82	81.58
369.032	113.98
369.244	12.71
369.456	123.42
369.667	68.62
369.879	144.15
370.09	-31.9
370.302	44.18
370.514	129.16
370.725	81.95
370.937	-41.72
371.148	-1.91
371.36	60.47
371.571	16.78
371.783	44.37
371.994	44.55
372.206	25.49
372.417	214.87
372.629	13.27
372.84	-2.84
373.051	-28.02
373.263	138.04
373.474	48.26
373.685	-21.35
373.897	50.66
374.108	74.91
374.319	-36.35
374.531	35.67
374.742	98.8
374.953	36.41
375.164	-71.89
375.375	46.22
375.587	-28.76
375.798	66.03
376.009	120.83
376.22	105.65
376.431	23.82
376.642	-9.13
376.853	96.94
377.065	99.91
377.276	54
377.487	5.49
377.698	-62.45
377.909	43.81
378.12	124.9
378.331	-16.54
378.542	8.64
378.753	-14.32
378.964	37.7
379.174	88.43
379.385	26.6
379.596	-65.6
379.807	114.35
380.018	-46.9
380.229	162.29
380.44	206.91
380.65	-33.01
380.861	86.39
381.072	43.07
381.283	97.13
381.493	162.85
381.704	120.27
381.915	15.12
382.126	-28.02
382.336	117.68
382.547	123.23
382.757	31.41
382.968	-71.34
383.179	14.93
383.389	115.27
383.6	30.3
383.81	38.44
384.021	200.99
384.231	208.95
384.442	8.27
384.652	8.45
384.863	162.11
385.073	83.8
385.284	116.2
385.494	33.82
385.705	20.67
385.915	22.89
386.125	1.79
386.336	12.16
386.546	-42.64
386.756	115.46
386.967	3.09
387.177	126.38
387.387	152.48
387.598	55.48
387.808	21.41
388.018	66.58
388.228	19.19
388.439	72.14
388.649	-24.13
388.859	-43.38
389.069	98.8
389.279	-30.61
389.489	22.15
389.699	35.67
389.909	18.27
390.12	-53.38
390.33	116.94
390.54	36.04
390.75	135.45
390.96	0.49
391.17	5.68
391.38	-35.42
391.59	-71.15
391.799	0.68
392.009	99.72
392.219	29.19
392.429	2.53
392.639	43.81
392.849	27.89
393.059	137.49
393.269	116.38
393.478	61.59
393.688	154.89
393.898	113.98
394.108	-31.72
394.317	21.04
394.527	-44.68
394.737	69.73
394.947	38.81
395.156	-0.99
395.366	70.1
395.576	134.71
395.785	66.77
395.995	102.5
396.204	47.33
396.414	-70.41
396.624	-8.39
396.833	-14.32
397.043	-1.36
397.252	34.93
397.462	170.62
397.671	65.1
397.881	-37.27
398.09	28.26
398.299	-14.69
398.509	30.3
398.718	44.92
398.928	67.32
399.137	155.81
399.346	54.92
399.556	70.1
399.765	-57.27
399.974	-46.9
400.184	49.74
400.393	94.17
400.602	89.54
400.811	71.21
401.021	36.96
401.23	152.11
401.439	86.95
401.648	95.46
401.857	20.86
402.066	36.96
402.276	7.34
402.485	170.44
402.694	47.33
402.903	105.09
403.112	-1.17
403.321	144.15
403.53	132.12
403.739	9.38
403.948	16.78
404.157	105.09
404.366	0.31
404.575	-18.39
404.784	124.9
404.993	92.69
405.202	250.6
405.411	176.73
405.619	-5.99
405.828	67.51
406.037	115.09
406.246	6.42
406.455	40.67
406.663	132.67
406.872	29.37
407.081	87.5
407.29	110.09
407.498	98.98
407.707	55.85
407.916	16.23
408.124	140.45
408.333	235.79
408.542	-26.16
408.75	57.51
408.959	24
409.168	68.62
409.376	35.11
409.585	104.72
409.793	211.35
410.002	118.6
410.21	150.26
410.419	160.63
410.627	51.4
410.836	88.8
411.044	106.94
411.253	108.05
411.461	16.78
411.669	221.35
411.878	196.36
412.086	7.16
412.294	148.41
412.503	11.42
412.711	125.27
412.919	151.56
413.128	54.74
413.336	14.56
413.544	216.35
413.752	178.21
413.961	182.1
414.169	97.5
414.377	182.84
414.585	313.17
414.793	98.61
415.001	59.73
415.209	139.52
415.418	62.7
415.626	161.55
415.834	94.54
416.042	102.13
416.25	2.72
416.458	-7.47
416.666	83.43
416.874	206.72
417.082	226.9
417.29	64.18
417.498	130.64
417.706	137.86
417.913	148.59
418.121	131.19
418.329	306.88
418.537	126.93
418.745	107.5
418.953	181.36
419.161	290.03
419.368	156.74
419.576	46.59
419.784	156
419.992	151.56
420.199	235.6
420.407	120.64
420.615	262.82
420.822	216.35
421.03	193.58
421.238	218.02
421.445	84.91
421.653	68.99
421.861	243.38
422.068	141.74
422.276	192.47
422.483	110.46
422.691	217.65
422.898	419.06
423.106	102.87
423.313	168.96
423.521	291.88
423.728	288.73
423.936	235.6
424.143	234.49
424.35	351.86
424.558	244.12
424.765	279.48
424.973	217.28
425.18	179.51
425.387	289.29
425.594	263.37
425.802	489.97
426.009	246.71
426.216	245.42
426.424	358.34
426.631	382.41
426.838	267.26
427.045	288.55
427.252	314.1
427.459	421.84
427.667	393.52
427.874	260.97
428.081	332.79
428.288	364.45
428.495	253.38
428.702	468.86
428.909	272.44
429.116	250.04
429.323	314.28
429.53	340.2
429.737	245.05
429.944	367.97
430.151	273.18
430.358	446.83
430.565	382.59
430.772	259.11
430.979	280.59
431.185	268.74
431.392	234.86
431.599	408.33
431.806	347.98
432.013	355.01
432.219	335.39
432.426	394.63
432.633	377.97
432.84	402.03
433.046	366.12
433.253	341.68
433.46	472.38
433.666	379.63
433.873	446.83
434.08	477.01
434.286	459.79
434.493	564.39
434.7	406.29
434.906	479.23
435.113	349.09
435.319	558.83
435.526	350.75
435.732	518.29
435.939	447.57
436.145	384.07
436.352	462.2
436.558	441.65
436.765	641.77
436.971	412.21
437.177	459.98
437.384	375.56
437.59	462.94
437.796	552.91
438.003	513.29
438.209	687.5
438.415	491.45
438.622	613.45
438.828	636.77
439.034	600.12
439.24	508.48
439.447	575.68
439.653	494.6
439.859	512.55
440.065	528.47
440.271	477.38
440.477	548.28
440.683	554.76
440.89	476.82
441.096	679.54
441.302	621.78
441.508	681.39
441.714	444.24
441.92	448.87
442.126	468.86
442.332	625.85
442.538	553.28
442.744	563.46
442.95	591.79
443.156	565.68
443.361	662.13
443.567	501.26
443.773	580.86
443.979	678.8
444.185	473.31
444.391	437.76
444.596	493.85
444.802	494.6
445.008	743.77
445.214	431.47
445.42	619.37
445.625	420.91
445.831	554.02
446.037	596.41
446.242	541.62
446.448	418.88
446.654	472.19
446.859	458.68
447.065	421.84
447.27	539.77
447.476	446.28
447.682	316.5
447.887	513.48
448.093	513.85
448.298	394.81
448.504	439.24
448.709	373.89
448.915	496.08
449.12	329.83
449.325	391.67
449.531	312.43
449.736	396.85
449.942	241.16
450.147	367.41
450.352	358.53
450.558	304.1
450.763	298.18
450.968	481.08
451.174	260.97
451.379	260.04
451.584	297.44
451.789	285.77
451.995	345.75
452.2	222.09
452.405	155.26
452.61	228.01
452.815	376.85
453.02	212.46
453.226	200.43
453.431	331.68
453.636	208.02
453.841	292.25
454.046	294.84
454.251	251.52
454.456	247.64
454.661	263.93
454.866	230.24
455.071	272.63
455.276	227.83
455.481	260.41
455.686	179.14
455.891	175.99
456.095	233.38
456.3	180.81
456.505	141.37
456.71	309.47
456.915	217.28
457.12	227.09
457.324	115.27
457.529	206.54
457.734	216.17
457.939	167.48
458.144	137.12
458.348	147.11
458.553	228.75
458.758	136.93
458.962	117.31
459.167	187.66
459.372	268.37
459.576	359.82
459.781	215.8
459.985	178.4
460.19	245.79
460.394	184.14
460.599	236.71
460.803	231.35
461.008	311.32
461.212	204.32
461.417	235.05
461.621	167.29
461.826	214.68
462.03	129.34
462.235	199.87
462.439	248.19
462.643	467.2
462.848	329.83
463.052	146.93
463.256	295.77
463.461	188.4
463.665	213.76
463.869	302.62
464.074	194.88
464.278	222.64
464.482	358.16
464.686	164.89
464.89	289.11
465.095	460.9
465.299	218.57
465.503	317.24
465.707	276.15
465.911	257.08
466.115	340.01
466.319	294.47
466.523	515.33
466.727	311.88
466.931	383.15
467.135	322.06
467.339	406.66
467.543	349.83
467.747	435.91
467.951	409.62
468.155	390.92
468.359	537.54
468.563	425.73
468.767	489.6
468.971	423.32
469.175	450.72
469.379	474.6
469.582	600.12
469.786	462.94
469.99	425.91
470.194	555.5
470.397	646.21
470.601	554.95
470.805	722.67
471.009	647.51
471.212	636.59
471.416	704.16
471.62	684.35
471.823	718.04
472.027	812.83
472.23	555.69
472.434	927.23
472.638	797.28
472.841	779.69
473.045	825.23
473.248	807.83
473.452	877.44
473.655	931.49
473.859	905.95
474.062	892.25
474.266	979.07
474.469	891.88
474.672	989.62
474.876	986.1
475.079	944.82
475.283	1061.45
475.486	1059.97
475.689	1044.79
475.893	1124.58
476.096	1242.5
476.299	1106.81
476.502	1107.73
476.706	1233.62
476.909	1229.36
477.112	1360.43
477.315	1293.41
477.519	1350.99
477.722	1358.02
477.925	1276.01
478.128	1314.15
478.331	1324.89
478.534	1315.63
478.737	1444.29
478.94	1387.09
479.143	1282.31
479.346	1484.09
479.549	1528.89
479.752	1421.89
479.955	1467.99
480.158	1572.21
480.361	1547.22
480.564	1589.25
480.767	1540.93
480.97	1596.84
481.173	1555.55
481.376	1671.07
481.579	1635.34
481.782	1647.56
481.984	1720.13
482.187	1743.46
482.39	1787.33
482.593	1804.18
482.796	1848.61
482.998	1792.51
483.201	1940.06
483.404	1816.58
483.606	1703.65
483.809	2014.48
484.012	1916.55
484.214	1922.1
484.417	1970.05
484.62	1902.48
484.822	1913.03
485.025	2055.95
485.227	2200.35
485.43	2050.58
485.632	2059.1
485.835	2232.19
486.037	2258.66
486.24	2161.1
486.442	2502.84
486.645	2251.26
486.847	2279.58
487.05	2316.42
487.252	2356.78
487.455	2341.6
487.657	2450.08
487.859	2454.71
488.062	2454.52
488.264	2490.07
488.466	2499.33
488.668	2594.48
488.871	2508.95
489.073	2635.58
489.275	2692.78
489.477	2631.88
489.68	2697.23
489.882	2754.98
490.084	2818.67
490.286	2967.32
490.488	2874.76
490.69	2899.38
490.893	3082.84
491.095	2920.67
491.297	3140.97
491.499	3188.18
491.701	3214.65
491.903	3237.05
492.105	3326.1
492.307	3315.55
492.509	3558.99
492.711	3375.34
492.913	3541.77
493.115	3581.2
493.317	3577.5
493.518	3590.46
493.72	3697.28
493.922	3738.93
494.124	3779.84
494.326	3905.54
494.528	3829.09
494.73	4021.62
494.931	4166.02
495.133	3956.64
495.335	4197.3
495.537	4189.9
495.738	4462.59
495.94	4366.32
496.142	4328.74
496.343	4425.56
496.545	4505.17
496.747	4614.76
496.948	4636.24
497.15	4782.67
497.351	4765.27
497.553	4767.12
497.755	4961.13
497.956	5149.41
498.158	5023.89
498.359	5202.54
498.561	5217.9
498.762	5179.03
498.964	5347.86
499.165	5595.37
499.366	5521.51
499.568	5491.15
499.769	5713.3
499.971	5742.55
500.172	5839.93
500.373	5904.72
500.575	5934.52
500.776	6145.57
500.977	6123.35
501.178	6295.71
501.38	6375.5
501.581	6544.89
501.782	6479.35
501.983	6602.27
502.185	6569.14
502.386	6814.06
502.587	6754.08
502.788	6957.16
502.989	6985.3
503.19	7240.03
503.391	7219.11
503.593	7387.58
503.794	7385.54
503.995	7493.66
504.196	7766.35
504.397	7697.3
504.598	7859.1
504.799	7818.74
505	8140.3
505.201	8145.86
505.402	8265.08
505.602	8251.01
505.803	8310.43
506.004	8487.23
506.205	8715.49
506.406	8764.18
506.607	8833.04
506.808	9081.3
507.008	8948.75
507.209	9224.96
507.41	9415.45
507.611	9234.4
507.812	9403.97
508.012	9465.43
508.213	9587.43
508.414	9687.59
508.614	9709.99
508.815	9818.1
509.016	10208.72
509.216	10222.23
509.417	10198.9
509.617	10238.52
509.818	10389.58
510.019	10493.07
510.219	10615.44
510.42	10635.25
510.62	10771.31
510.821	10849.81
511.021	11092.14
511.222	11174.7
511.422	11173.04
511.623	11238.2
511.823	11632.89
512.023	11341.87
512.224	11676.58
512.424	11631.59
512.624	11777.66
512.825	11834.12
513.025	12178.27
513.225	12036.28
513.426	12177.9
513.626	12256.4
513.826	12448.93
514.026	12583.33
514.227	12689.03
514.427	12753.27
514.627	12742.72
514.827	12933.22
515.027	12999.49
515.228	13258.11
515.428	13403.99
515.628	13364.93
515.828	13447.31
516.028	13471.93
516.228	13768.88
516.428	13841.26
516.628	13736.48
516.828	13826.63
517.028	14025.27
517.228	14096.92
517.428	14194.67
517.628	14234.65
517.828	14510.12
518.028	14592.5
518.228	14414.97
518.428	14445.88
518.627	14699.32
518.827	14581.76
519.027	14741.16
519.227	15054.02
519.427	14935.35
519.626	14993.11
519.826	15004.04
520.026	15099.75
520.226	15170.83
520.425	15273.21
520.625	15154.54
520.825	15262.29
521.024	15287.65
521.224	15283.39
521.424	15485.18
521.623	15336.52
521.823	15393.36
522.023	15577.93
522.222	15581.81
522.422	15590.89
522.621	15811.74
522.821	15774.16
523.02	15631.98
523.22	15776.75
523.419	15954.1
523.619	15791.38
523.818	15803.23
524.017	15853.02
524.217	15878.39
524.416	16009.83
524.616	16211.24
524.815	15957.99
525.014	16132.01
525.214	16110.16
525.413	16127.94
525.612	16191.25
525.812	16280.48
526.011	16030.19
526.21	16386.37
526.409	16199.21
526.608	16429.14
526.808	16324.73
527.007	16384.34
527.206	16499.48
527.405	16239.01
527.604	16391.37
527.803	16481.16
528.003	16397.3
528.202	16590.2
528.401	16675.91
528.6	16394.52
528.799	16552.25
528.998	16479.86
529.197	16444.13
529.396	16547.06
529.595	16561.13
529.794	16654.06
529.993	16531.14
530.192	16710.71
530.39	16583.72
530.589	16634.07
530.788	16668.32
530.987	16414.7
531.186	16703.12
531.385	16517.07
531.583	16689.61
531.782	16594.64
531.981	16467.46
532.18	16453.2
532.379	16473.57
532.577	16558.91
532.776	16502.63
532.975	16500.23
533.173	16432.47
533.372	16403.59
533.571	16372.67
533.769	16382.67
533.968	16721.64
534.166	16361.94
534.365	16314.91
534.564	16541.14
534.762	16441.91
534.961	16457.09
535.159	16461.35
535.358	16371.75
535.556	16305.47
535.755	16322.13
535.953	16263.63
536.151	16503.74
536.35	16222.35
536.548	16275.48
536.747	16234.2
536.945	16324.91
537.143	16278.07
537.342	16189.4
537.54	16262.89
537.738	16261.78
537.937	16210.32
538.135	16199.58
538.333	16049.81
538.531	16229.02
538.73	16136.82
538.928	16226.98
539.126	16063.14
539.324	16328.61
539.522	16195.88
539.72	16041.11
539.919	16040.74
540.117	16046.85
540.315	16132.01
540.513	16052.22
540.711	15948.55
540.909	15924.67
541.107	16049.44
541.305	15924.3
541.503	16133.49
541.701	15772.86
541.899	15931.89
542.097	15947.25
542.295	15817.85
542.493	15730.29
542.691	15610.51
542.888	15718.99
543.086	15643.46
543.284	15670.49
543.482	15697.7
543.68	15652.9
543.878	15784.71
544.075	15457.6
544.273	15541.27
544.471	15406.13
544.669	15488.33
544.866	15519.98
545.064	15324.67
545.262	15399.28
545.459	15320.6
545.657	15472.78
545.855	15131.59
546.052	15096.78
546.25	15299.13
546.447	15284.5
546.645	15049.21
546.842	15203.23
547.04	14997.74
547.238	14905.73
547.435	14951.83
547.633	14883.89
547.83	14856.68
548.027	14790.03
548.225	14899.63
548.422	14806.32
548.62	14430.15
548.817	14712.28
549.014	14604.35
549.212	14676.73
549.409	14638.04
549.606	14590.83
549.804	14515.3
550.001	14441.07
550.198	14509.93
550.396	14146.53
550.593	14330.36
550.79	14154.86
550.987	14158.01
551.184	14123.02
551.382	14443.47
551.579	14090.62
551.776	13927.16
551.973	13997.32
552.17	13976.22
552.367	14121.54
552.564	13799.98
552.761	13917.53
552.958	13846.44
553.155	13930.12
553.353	13861.81
553.55	13698.71
553.746	13593.38
553.943	13727.41
554.14	13697.6
554.337	13607.63
554.534	13668.54
554.731	13517.66
554.928	13603.19
555.125	13700.56
555.322	13366.6
555.519	13269.96
555.715	13225.34
555.912	13165.55
556.109	13191.1
556.306	13117.05
556.503	13118.16
556.699	13092.98
556.896	13034.11
557.093	12949.51
557.289	12927.48
557.486	12792.52
557.683	13054.29
557.879	12672
558.076	12620.35
558.273	12656.08
558.469	12555.37
558.666	12431.15
558.862	12561.67
559.059	12366.55
559.255	12364.69
559.452	12238.25
559.648	12088.86
559.845	12253.62
560.041	12104.22
560.238	12264.36
560.434	12068.12
560.631	11868
560.827	12015.55
561.023	11811.91
561.22	11765.26
561.416	11671.03
561.612	11695.28
561.809	11496.27
562.005	11499.78
562.201	11439.43
562.398	11499.78
562.594	11348.54
562.79	11279.86
562.986	11370.94
563.182	11201.36
563.379	11205.06
563.575	11039.38
563.771	11054.93
563.967	11126.57
564.163	10915.53
564.359	10970.32
564.555	11084.73
564.751	10695.6
564.947	10708.56
565.144	10753.36
565.34	10782.61
565.536	10772.42
565.732	10590.26
565.928	10484.92
566.123	10387.73
566.319	10480.67
566.515	10512.69
566.711	10381.81
566.907	10372.18
567.103	10248.7
567.299	10061.73
567.495	10265.55
567.691	9916.96
567.886	10176.69
568.082	9961.2
568.278	10072.09
568.474	10102.27
568.669	9934.17
568.865	9874.01
569.061	9717.39
569.257	9894
569.452	9744.79
569.648	9640.75
569.844	9660.19
570.039	9579.84
570.235	9645.93
570.43	9470.8
570.626	9541.52
570.822	9688.88
571.017	9555.22
571.213	9343.81
571.408	9300.86
571.604	9363.99
571.799	9202
571.995	9210.89
572.19	9189.97
572.385	9110.92
572.581	9134.24
572.776	9176.82
572.972	9134.24
573.167	8981.33
573.362	8988.18
573.558	9021.13
573.753	8935.05
573.948	8994.29
574.144	8883.4
574.339	8948.56
574.534	8763.25
574.729	8722.71
574.925	8828.23
575.12	8796.94
575.315	8570.35
575.51	8729.93
575.705	8665.87
575.9	8684.2
576.096	8737.7
576.291	8574.05
576.486	8676.61
576.681	8613.67
576.876	8728.82
577.071	8538.69
577.266	8552.95
577.461	8651.81
577.656	8641.62
577.851	8622.37
578.046	8601.45
578.241	8614.97
578.436	8586.64
578.631	8604.6
578.826	8726.6
579.021	8534.44
579.215	8684.39
579.41	8851.74
579.605	8639.4
579.8	8710.49
579.995	8752.51
580.189	8763.44
580.384	8781.39
580.579	8762.51
580.774	8740.85
580.968	8789.54
581.163	8866.55
581.358	8952.64
581.552	8886.17
581.747	8938.75
581.942	9027.61
582.136	8930.79
582.331	8883.21
582.526	9019.47
582.72	9115.92
582.915	9167.01
583.109	9191.45
583.304	9208.66
583.498	9375.09
583.693	9331.96
583.887	9402.49
584.082	9339.55
584.276	9768.49
584.471	9341.59
584.665	9655.37
584.859	9481.54
585.054	9618.16
585.248	9794.03
585.442	9852.9
585.637	9889.56
585.831	9898.07
586.025	10055.8
586.22	10113.75
586.414	10119.3
586.608	10175.02
586.802	10198.72
586.997	10273.14
587.191	10310.35
587.385	10528.06
587.579	10489.92
587.773	10746.69
587.967	10678.75
588.162	10817.97
588.356	10815.56
588.55	10937.37
588.744	10894.98
588.938	11102.5
589.132	11160.26
589.326	11231.72
589.52	11345.57
589.714	11212.1
589.908	11485.72
590.102	11651.96
590.296	11626.41
590.49	11785.43
590.684	11840.97
590.877	11992.59
591.071	11843.93
591.265	12134.21
591.459	12106.07
591.653	12114.22
591.847	12310.82
592.04	12246.03
592.234	12475.4
592.428	12482.43
592.622	12497.98
592.815	12761.05
593.009	12764.2
593.203	13101.87
593.397	12860.46
593.59	13028.37
593.784	12963.58
593.977	13072.99
594.171	13124.08
594.365	13291.62
594.558	13279.22
594.752	13416.4
594.945	13394.55
595.139	13534.69
595.332	13403.99
595.526	13616.52
595.719	13666.32
595.913	13762.77
596.106	13726.48
596.3	13677.24
596.493	13827
596.687	13868.84
596.88	13911.42
597.073	14059.15
597.267	13930.12
597.46	13970.48
597.653	14001.76
597.847	14139.5
598.04	14117.28
598.233	14394.79
598.426	14027.68
598.62	14232.99
598.813	14138.57
599.006	14328.33
599.199	14353.32
599.392	14277.05
599.586	14289.82
599.779	14252.05
599.972	14280.93
600.165	14344.43
600.358	14249.28
600.551	14578.62
600.744	14316.48
600.937	14351.65
601.13	14324.25
601.323	14347.02
601.516	14349.06
601.709	14418.3
601.902	14312.96
602.095	14383.12
602.288	14356.47
602.481	14436.07
602.674	14305.56
602.867	14452.73
603.06	14381.09
603.252	14165.6
603.445	14482.17
603.638	14226.69
603.831	14442.18
604.024	14185.41
604.216	14282.41
604.409	14199.48
604.602	14005.84
604.795	14386.27
604.987	14088.4
605.18	14149.12
605.373	14290.75
605.565	14170.23
605.758	14133.02
605.951	13989.73
606.143	13953.82
606.336	14148.2
606.528	13919.01
606.721	13898.46
606.913	13816.64
607.106	13877.17
607.298	13742.96
607.491	13796.83
607.683	13692.23
607.876	13512.48
608.068	13467.3
608.261	13698.16
608.453	13476.75
608.646	13594.49
608.838	13365.12
609.03	13403.81
609.223	13244.04
609.415	13251.08
609.607	13136.3
609.8	13249.97
609.992	13112.79
610.184	13219.98
610.376	13119.08
610.569	13095.2
610.761	12873.05
610.953	12945.43
611.145	12960.24
611.337	12884.16
611.529	12923.4
611.722	12906.19
611.914	12679.96
612.106	12676.63
612.298	12675.71
612.49	12764.57
612.682	12844.73
612.874	12828.8
613.066	12574.07
613.258	12673.85
613.45	12436.71
613.642	12375.43
613.834	12361.92
614.026	12506.87
614.218	12320.08
614.41	12345.81
614.602	12231.59
614.793	12449.3
614.985	12344.7
615.177	12191.79
615.369	12134.95
615.561	12145.13
615.753	12126.07
615.944	12223.26
616.136	11999.81
616.328	11937.24
616.52	11987.22
616.711	11872.81
616.903	11982.22
617.095	12061.27
617.286	11802.47
617.478	11946.49
617.67	11759.7
617.861	11892.81
618.053	11936.87
618.244	11840.97
618.436	11759.52
618.627	11681.02
618.819	11691.39
619.01	11912.62
619.202	11662.33
619.393	11757.3
619.585	11666.77
619.776	11722.31
619.968	11632.52
620.159	11611.79
620.351	11438.88
620.542	11485.34
620.733	11539.59
620.925	11428.7
621.116	11388.52
621.307	11411.66
621.499	11365.75
621.69	11437.03
621.881	11261.53
622.072	11387.6
622.264	11164.71
622.455	11159.34
622.646	11397.22
622.837	11065.11
623.028	11135.09
623.22	11016.05
623.411	11176.37
623.602	10895.53
623.793	10944.41
623.984	10907.01
624.175	10949.59
624.366	10902.38
624.557	10755.02
624.748	10614.33
624.939	10838.88
625.13	10698.74
625.321	10560.27
625.512	10467.34
625.703	10480.48
625.894	10546.02
626.085	10273.69
626.276	10257.22
626.467	10230.75
626.658	10274.62
626.848	10227.97
627.039	10076.91
627.23	10045.25
627.421	10012.67
627.612	10078.94
627.802	10096.53
627.993	9902.33
628.184	9979.34
628.375	9911.77
628.565	9906.03
628.756	9537.63
628.947	9667.96
629.137	9691.66
629.328	9521.53
629.519	9366.39
629.709	9490.61
629.9	9287.71
630.09	9363.24
630.281	9400.08
630.471	9279.01
630.662	9202.19
630.852	9119.99
631.043	9103.51
631.233	9199.59
631.424	9118.51
631.614	9050.38
631.805	9022.61
631.995	9063.34
632.185	8843.97
632.376	8881.36
632.566	8821.75
632.756	8777.69
632.947	8698.09
633.137	8545.36
633.327	8812.49
633.518	8622
633.708	8701.23
633.898	8676.61
634.088	8585.35
634.279	8364.3
634.469	8362.08
634.659	8410.22
634.849	8284.14
635.039	8284.7
635.229	8344.13
635.42	8188.62
635.61	8099.39
635.8	8011.45
635.99	8095.32
636.18	8056.81
636.37	7966.65
636.56	8096.24
636.75	8057.37
636.94	7922.41
637.13	7837.25
637.32	7910.01
637.51	7698.41
637.7	7849.28
637.89	7724.32
638.079	7780.23
638.269	7537.35
638.459	7471.81
638.649	7445.71
638.839	7675.08
639.029	7590.11
639.218	7438.49
639.408	7280.21
639.598	7412.94
639.788	7367.22
639.977	7267.62
640.167	7247.81
640.357	7208.19
640.546	7056.76
640.736	7086.19
640.926	7202.08
641.115	7068.05
641.305	6963.27
641.495	6968.27
641.684	6945.68
641.874	6942.54
642.063	6857.75
642.253	6821.65
642.442	6904.77
642.632	6820.91
642.821	6565.99
643.011	6669.11
643.2	6578.58
643.39	6628.19
643.579	6637.45
643.768	6542.66
643.958	6509.71
644.147	6478.05
644.336	6306.63
644.526	6480.83
644.715	6262.01
644.904	6403.82
645.094	6410.48
645.283	6152.05
645.472	6245.91
645.661	6204.99
645.851	6062.82
646.04	6055.23
646.229	5938.41
646.418	6043.01
646.607	6006.72
646.796	5904.35
646.986	5978.03
647.175	5936.19
647.364	5943.23
647.553	5933.41
647.742	5803.64
647.931	5717.93
648.12	5665.35
648.309	5684.79
648.498	5668.5
648.687	5814.19
648.876	5482.63
649.065	5540.02
649.254	5577.23
649.443	5396.55
649.632	5605.93
649.82	5527.25
650.009	5397.29
650.198	5271.77
650.387	5285.84
650.576	5300.84
650.765	5391.74
650.953	5322.5
651.142	5158.66
651.331	5244.56
651.52	5229.19
651.708	5277.14
651.897	5228.82
652.086	5080.91
652.274	4960.02
652.463	5083.69
652.652	5078.69
652.84	5006.3
653.029	5049.62
653.217	5052.58
653.406	4979.27
653.594	4919.85
653.783	5007.04
653.972	4900.41
654.16	4892.27
654.349	4809.51
654.537	4850.06
654.725	4981.31
654.914	4767.12
655.102	4687.52
655.291	4699.36
655.479	4564.41
655.667	4695.66
655.856	4610.5
656.044	4586.25
656.232	4688.07
656.421	4610.32
656.609	4529.05
656.797	4621.98
656.986	4504.61
657.174	4500.17
657.362	4410.75
657.55	4530.16
657.738	4451.85
657.927	4434.63
658.115	4401.31
658.303	4285.98
658.491	4407.79
658.679	4282.09
658.867	4250.8
659.055	4177.86
659.243	4219.89
659.431	4218.96
659.619	4190.08
659.807	4222.11
659.995	4207.3
660.183	4184.71
660.371	3993.48
660.559	4206.74
660.747	4067.53
660.935	4015.32
661.123	3857.23
661.311	3958.86
661.499	3886.48
661.687	3861.11
661.875	3991.63
662.062	3945.72
662.25	3915.91
662.438	3887.77
662.626	3833.9
662.813	3779.29
663.001	3819.64
663.189	3664.88
663.377	3661.18
663.564	3663.4
663.752	3726.71
663.94	3574.91
664.127	3619.52
664.315	3702.83
664.502	3539.55
664.69	3696.17
664.878	3620.26
665.065	3522.7
665.253	3547.51
665.44	3556.58
665.628	3470.87
665.815	3497.71
666.003	3513.63
666.19	3428.66
666.378	3372.01
666.565	3371.08
666.752	3493.82
666.94	3420.14
667.127	3398.3
667.315	3378.12
667.502	3267.97
667.689	3102.1
667.877	3152.08
668.064	3403.85
668.251	3164.85
668.438	3147.08
668.626	3145.23
668.813	3129.12
669	3113.57
669.187	3002.31
669.374	3075.25
669.562	2958.81
669.749	3225.02
669.936	3036.01
670.123	2938.44
670.31	3083.58
670.497	2931.22
670.684	3017.68
670.871	2862.54
671.058	2965.1
671.245	2955.66
671.432	2932.71
671.619	2876.98
671.806	2918.82
671.993	2996.39
672.18	2849.58
672.367	2747.95
672.554	2700.19
672.741	2730.18
672.928	2791.27
673.115	2827.92
673.302	2717.77
673.488	2753.87
673.675	2728.14
673.862	2624.66
674.049	2733.7
674.235	2697.04
674.422	2605.96
674.609	2629.28
674.796	2635.21
674.982	2575.23
675.169	2550.24
675.356	2636.87
675.542	2610.96
675.729	2575.23
675.916	2532.09
676.102	2667.79
676.289	2560.79
676.475	2443.23
676.662	2432.68
676.848	2468.78
677.035	2420.83
677.221	2434.9
677.408	2457.3
677.594	2453.78
677.781	2440.27
677.967	2393.99
678.154	2329.19
678.34	2385.29
678.526	2237.74
678.713	2317.9
678.899	2293.09
679.085	2275.69
679.272	2206.27
679.458	2296.98
679.644	2294.76
679.831	2119.26
680.017	2335.67
680.203	2239.96
680.389	2244.96
680.576	2291.24
680.762	2083.53
680.948	2237.74
681.134	2076.68
681.32	2070.57
681.506	2149.44
681.692	2077.61
681.879	2083.35
682.065	2054.65
682.251	2185.17
682.437	1982.27
682.623	2036.51
682.809	1901.18
682.995	1877.3
683.181	2067.43
683.367	2096.31
683.553	1821.21
683.739	1977.08
683.924	1946.17
684.11	1928.21
684.296	1995.78
684.482	2091.12
684.668	1938.39
684.854	1807.51
685.04	1906.74
685.225	1887.48
685.411	1921.73
685.597	1787.89
685.783	1843.42
685.968	1767.89
686.154	1799.92
686.34	1720.13
686.526	1724.02
686.711	1691.06
686.897	1944.32
687.083	1674.22
687.268	1848.61
687.454	1698.84
687.639	1780.11
687.825	1701.8
688.01	1811.21
688.196	1695.14
688.382	1753.45
688.567	1798.25
688.752	1806.77
688.938	1540.19
689.123	1846.57
689.309	1679.4
689.494	1483.91
689.68	1711.8
689.865	1744.38
690.05	1657.19
690.236	1632.38
690.421	1523.34
690.606	1420.6
690.792	1558.51
690.977	1480.58
691.162	1529.08
691.348	1522.79
691.533	1449.29
691.718	1376.72
691.903	1452.07
692.089	1477.24
692.274	1396.9
692.459	1358.02
692.644	1517.05
692.829	1636.82
693.014	1424.11
693.199	1452.44
693.384	1373.76
693.569	1514.82
693.755	1471.88
693.94	1428.74
694.125	1494.46
694.31	1285.45
694.495	1398.57
694.68	1245.65
694.864	1407.27
695.049	1272.87
695.234	1286.75
695.419	1498.35
695.604	1290.64
695.789	1376.17
695.974	1396.71
696.159	1237.32
696.344	1313.59
696.528	1292.3
696.713	1224.73
696.898	1341.55
697.083	1294.71
697.267	1185.12
697.452	1208.07
697.637	1223.44
697.822	1202.89
698.006	1231.4
698.191	1285.64
698.375	1248.06
698.56	1260.65
698.745	1252.32
698.929	1231.58
699.114	1219.55
699.298	1221.21
699.483	1282.31
699.668	1104.59
699.852	993.32
700.037	1128.47
700.221	990.18
700.405	1275.27
700.59	1273.42
700.774	1101.99
700.959	1048.86
701.143	1096.25
701.328	1157.16
701.512	995.18
701.696	1008.88
701.881	1101.99
702.065	1026.09
702.249	946.12
702.433	1188.63
702.618	1009.06
702.802	1079.04
702.986	1062.93
703.17	1857.31
703.355	941.67
703.539	909.09
703.723	1070.71
703.907	984.07
704.091	1168.45
704.275	1004.99
704.46	917.42
704.644	1051.82
704.828	897.24
705.012	833.75
705.196	956.3
705.38	853.92
705.564	1122.73
705.748	894.28
705.932	1034.61
706.116	898.17
706.3	867.81
706.484	886.51
706.668	956.11
706.851	983.14
707.035	1017.76
707.219	1020.17
707.403	934.27
707.587	859.66
707.771	976.29
707.954	823.01
708.138	954.82
708.322	843.74
708.506	789.87
708.689	842.08
708.873	746.55
709.057	800.98
709.241	997.58
709.424	826.9
709.608	905.2
709.792	728.59
709.975	779.87
710.159	720.82
710.342	787.09
710.526	883.17
710.709	814.49
710.893	771.91
711.077	808.2
711.26	822.82
711.443	743.96
711.627	885.77
711.81	904.46
711.994	697.86
712.177	713.97
712.361	746.18
712.544	657.14
712.727	728.22
712.911	728.59
713.094	745.44
713.277	752.11
713.461	802.09
713.644	693.79
713.827	845.22
714.011	607.71
714.194	665.47
714.377	703.6
714.56	773.95
714.743	752.11
714.927	721.74
715.11	683.05
715.293	600.49
715.476	717.49
715.659	708.23
715.842	653.06
716.025	561.24
716.208	631.77
716.391	748.96
716.575	686.94
716.758	706.75
716.941	577.53
717.124	644.92
717.306	598.64
717.489	517.18
717.672	551.61
717.855	640.47
718.038	501.82
718.221	685.65
718.404	459.79
718.587	478.86
718.77	505.52
718.952	597.34
719.135	603.82
719.318	533.47
719.501	499.04
719.684	568.46
719.866	624.74
720.049	560.31
720.232	534.21
720.414	672.5
720.597	634.92
720.78	537.91
720.962	551.8
721.145	581.23
721.328	528.47
721.51	482.19
721.693	472.19
721.875	493.3
722.058	385.37
722.24	515.14
722.423	652.14
722.605	438.87
722.788	433.13
722.97	539.4
723.153	436.47
723.335	335.39
723.518	439.8
723.7	542.36
723.882	464.6
724.065	493.11
724.247	403.88
724.429	453.31
724.612	521.62
724.794	330.39
724.976	451.46
725.159	452.94
725.341	460.16
725.523	414.07
725.705	434.61
725.888	649.55
726.07	419.43
726.252	290.77
726.434	364.08
726.616	442.76
726.798	260.6
726.98	406.1
727.162	378.34
727.345	527.73
727.527	387.78
727.709	358.53
727.891	481.82
728.073	428.51
728.255	378.52
728.437	533.84
728.619	367.41
728.801	438.69
728.982	343.35
729.164	333.91
729.346	402.77
729.528	438.5
729.71	270.22
729.892	349.09
730.074	438.32
730.255	424.25
730.437	350.38
730.619	365.19
730.801	620.11
730.983	352.05
731.164	515.51
731.346	481.64
731.528	329.46
731.709	397.22
731.891	262.26
732.073	314.1
732.254	477.38
732.436	319.84
732.617	255.97
732.799	394.63
732.981	359.45
733.162	349.46
733.344	243.38
733.525	330.02
733.707	363.34
733.888	343.72
734.07	283.55
734.251	309.28
734.433	330.94
734.614	350.2
734.795	382.59
734.977	385.37
735.158	274.48
735.34	444.06
735.521	313.36
735.702	257.26
735.883	332.79
736.065	297.99
736.246	332.05
736.427	404.62
736.609	419.99
736.79	275.04
736.971	237.46
737.152	268.74
737.333	302.06
737.514	293.55
737.696	455.72
737.877	263
738.058	257.63
738.239	278.18
738.42	333.54
738.601	298.55
738.782	277.07
738.963	388.89
739.144	265.78
739.325	350.75
739.506	315.76
739.687	244.67
739.868	423.14
740.049	318.36
740.23	314.84
740.411	348.53
740.592	345.01
740.773	199.32
740.953	333.54
741.134	286.51
741.315	240.42
741.496	280.59
741.677	214.5
741.857	325.39
742.038	157.11
742.219	232.09
742.4	266.52
742.58	205.8
742.761	255.97
742.942	257.63
743.122	229.86
743.303	224.87
743.484	189.51
743.664	252.64
743.845	285.03
744.025	302.62
744.206	284.66
744.386	272.07
744.567	128.23
744.748	294.84
744.928	443.5
745.108	325.58
745.289	197.1
745.469	239.68
745.65	382.78
745.83	181.73
746.011	234.68
746.191	333.17
746.371	153.78
746.552	278.37
746.732	284.29
746.912	362.97
747.093	273
747.273	253.38
747.453	183.4
747.633	360.19
747.814	147.3
747.994	258.37
748.174	324.65
748.354	208.95
748.534	213.39
748.715	247.27
748.895	344.83
749.075	166
749.255	386.67
749.435	219.5
749.615	351.31
749.795	253.19
749.975	283.55
750.155	275.96
750.335	254.67
750.515	234.86
750.695	280.4
750.875	223.76
751.055	273.55
751.235	193.58
751.415	289.66
751.595	179.14
751.775	321.32
751.954	202.47
752.134	318.54
752.314	330.57
752.494	330.2
752.674	169.33
752.854	303.73
753.033	188.58
753.213	169.88
753.393	176.18
753.572	256.52
753.752	164.33
753.932	246.34
754.111	222.09
754.291	217.46
754.471	215.8
754.65	223.02
754.83	226.53
755.01	236.9
755.189	203.21
755.369	157.11
755.548	254.12
755.728	235.23
755.907	245.79
756.087	205.8
756.266	365.56
756.446	131.93
756.625	176.36
756.804	499.78
756.984	192.1
757.163	180.99
757.343	199.87
757.522	86.21
757.701	174.51
757.881	311.69
758.06	98.61
758.239	171.37
758.418	292.44
758.598	327.61
758.777	262.08
758.956	223.39
759.135	212.09
759.315	197.28
759.494	415.73
759.673	232.09
759.852	139.89
760.031	155.44
760.21	146.37
760.389	86.95
760.568	165.44
760.748	241.71
760.927	153.96
761.106	221.72
761.285	225.98
761.464	143.41
761.643	267.26
761.822	237.83
762	265.04
762.179	108.42
762.358	185.99
762.537	185.8
762.716	147.48
762.895	131.38
763.074	220.42
763.253	268.93
763.431	92.5
763.61	205.98
763.789	188.58
763.968	118.6
764.147	199.5
764.325	173.03
764.504	163.4
764.683	131.38
764.861	231.16
765.04	158.59
765.219	163.59
765.397	146.56
765.576	321.5
765.755	256.71
765.933	146.93
766.112	249.67
766.29	157.48
766.469	121.57
766.647	186.18
766.826	156.55
767.004	196.54
767.183	233.75
767.361	249.67
767.54	346.68
767.718	293.73
767.897	132.86
768.075	114.72
768.253	112.31
768.432	211.54
768.61	126.38
768.788	141.56
768.967	205.61
769.145	108.61
769.323	232.46
769.501	128.23
769.68	129.16
769.858	216.35
770.036	74.91
770.214	269.3
770.393	118.05
770.571	183.21
770.749	34
770.927	49.18
771.105	274.67
771.283	103.61
771.461	122.49
771.639	207.46
771.817	124.34
771.995	117.31
772.173	247.45
772.351	150.63
772.529	225.05
772.707	289.29
772.885	130.08
773.063	292.62
773.241	280.59
773.419	113.42
773.597	182.1
773.775	95.09
773.953	120.09
774.131	136.19
774.308	250.97
774.486	242.82
774.664	189.88
774.842	127.86
775.02	241.53
775.197	248.19
775.375	210.43
775.553	104.72
775.73	85.28
775.908	183.4
776.086	190.06
776.263	154.89
776.441	230.79
776.619	24.93
776.796	109.16
776.974	178.03
777.151	87.32
777.329	112.31
777.506	246.16
777.684	96.76
777.861	217.83
778.039	175.99
778.216	240.79
778.394	225.79
778.571	238.57
778.749	58.44
778.926	142.12
779.103	134.71
779.281	134.52
779.458	248.75
779.635	161.18
779.813	170.81
779.99	120.27
780.167	101.57
780.345	278.92
780.522	280.03
780.699	93.24
780.876	81.39
781.054	131.75
781.231	92.5
781.408	156.37
781.585	138.41
781.762	108.24
781.939	99.54
782.116	120.09
782.294	180.99
782.471	40.48
782.648	96.2
782.825	111.57
783.002	138.04
783.179	120.64
783.356	58.62
783.533	121.75
783.71	103.42
783.887	190.43
784.064	191.17
784.24	74.17
784.417	131.75
784.594	130.64
784.771	142.12
784.948	255.78
785.125	38.26
785.302	119.16
785.478	392.22
785.655	104.35
785.832	42.52
786.009	149.15
786.185	137.3
786.362	233.2
786.539	56.59
786.715	410.18
786.892	161.74
787.069	277.44
787.245	161.55
787.422	110.83
787.599	156.93
787.775	175.99
787.952	73.25
788.128	224.5
788.305	141.74
788.481	104.72
788.658	49.92
788.834	163.77
789.011	75.47
789.187	200.06
789.364	48.81
789.54	262.82
789.717	185.62
789.893	-5.99
790.069	176.36
790.246	68.62
790.422	116.01
790.598	97.5
790.775	112.31
790.951	204.69
791.127	105.46
791.304	84.36
791.48	25.12
791.656	137.12
791.832	133.97
792.008	72.14
792.185	98.43
792.361	118.97
792.537	108.42
792.713	169.14
792.889	147.85
793.065	191.73
793.241	136.93
793.417	124.9
793.593	21.23
793.769	99.35
793.945	45.11
794.121	131.56
794.297	138.78
794.473	95.65
794.649	198.58
794.825	99.17
795.001	120.27
795.177	-17.83
795.353	156.74
795.529	122.12
795.705	154.89
795.881	117.49
796.056	134.71
796.232	102.13
796.408	212.28
796.584	88.61
796.76	151.56
796.935	73.8
797.111	69.36
797.287	50.85
797.462	179.88
797.638	222.09
797.814	35.48
797.989	100.83
798.165	172.85
798.341	301.69
798.516	105.65
798.692	180.07
798.867	191.36
799.043	148.78
799.218	182.47
799.394	111.94
799.569	348.35
799.745	171.92
799.92	140.08
800.096	149.89
800.271	183.4
800.447	370.19
800.622	144.34
800.797	-9.5
800.973	13.08
801.148	128.23
801.323	174.33
801.499	45.48
801.674	29.56
801.849	213.94
802.025	154.89
802.2	256.71
802.375	182.29
802.55	186.92
802.725	46.03
802.901	110.64
803.076	141
803.251	81.39
803.426	84.54
803.601	185.06
803.776	18.64
803.951	19.38
804.127	61.96
804.302	105.46
804.477	89.72
804.652	217.83
804.827	27.71
805.002	11.42
805.177	128.79
805.352	277.63
805.526	132.49
805.701	267.45
805.876	143.97
806.051	46.22
806.226	142.49
806.401	212.83
806.576	113.79
806.751	99.54
806.925	66.03
807.1	134.34
807.275	29.19
807.45	65.66
807.625	436.1
807.799	168.22
807.974	96.57
808.149	13.64
808.323	113.42
808.498	153.41
808.673	130.82
808.847	8.82
809.022	121.75
809.197	198.95
809.371	61.96
809.546	185.06
809.72	90.46
809.895	108.98
810.069	-76.33
810.244	238.2
810.418	31.41
810.593	255.6
810.767	175.44
810.942	168.77
811.116	280.03
811.29	118.23
811.465	93.43
811.639	151.74
811.814	250.6
811.988	273.37
812.162	198.58
812.337	66.95
812.511	183.21
812.685	136.56
812.859	92.87
813.034	153.04
813.208	169.51
813.382	32.34
813.556	158.96
813.73	160.07
813.905	51.59
814.079	60.1
814.253	148.41
814.427	259.86
814.601	17.34
814.775	126.75
814.949	66.77
815.123	144.71
815.297	23.63
815.471	41.41
815.645	87.69
815.819	137.49
815.993	96.57
816.167	89.35
816.341	99.17
816.515	141
816.689	-26.9
816.863	113.98
817.037	81.95
817.21	133.6
817.384	98.61
817.558	116.94
817.732	242.64
817.906	103.79
818.079	-22.28
818.253	173.22
818.427	8.82
818.601	122.86
818.774	220.24
818.948	112.31
819.122	246.16
819.295	104.35
819.469	91.58
819.643	123.23
819.816	63.81
819.99	119.9
820.163	73.62
820.337	18.27
820.511	215.98
820.684	137.86
820.858	156.93
821.031	7.34
821.205	105.46
821.378	135.45
821.551	152.85
821.725	173.03
821.898	122.31
822.072	146.93
822.245	205.06
822.418	142.67
822.592	14.56
822.765	31.78
822.938	200.8
823.112	55.29
823.285	172.66
823.458	106.02
823.631	91.02
823.805	126.19
823.978	136.75
824.151	111.57
824.324	165.44
824.497	152.85
824.671	112.12
824.844	144.34
825.017	121.01
825.19	-68.37
825.363	-57.27
825.536	88.06
825.709	84.73
825.882	118.97
826.055	113.61
826.228	-25.42
826.401	67.69
826.574	47.52
826.747	84.17
826.92	136.38
827.093	114.35
827.266	150.82
827.439	105.83
827.612	42.15
827.785	50.11
827.957	94.72
828.13	96.39
828.303	119.53
828.476	112.12
828.649	40.48
828.821	186.36
828.994	91.39
829.167	57.33
829.34	251.89
829.512	145.82
829.685	249.67
829.858	150.08
830.03	190.99
830.203	245.05
830.375	276.52
830.548	144.52
830.721	113.98
830.893	78.06
831.066	138.23
831.238	123.23
831.411	257.08
831.583	107.13
831.756	170.07
831.928	40.3
832.101	115.83
832.273	117.86
832.446	70.84
832.618	152.85
832.79	147.85
832.963	39.19
833.135	70.84
833.307	82.32
833.48	179.14
833.652	90.09
833.824	280.77
833.997	154.7
834.169	139.15
834.341	102.5
834.513	21.23
834.686	92.32
834.858	134.52
835.03	115.64
835.202	26.23
835.374	17.9
835.546	136.56
835.718	67.32
835.891	125.82
836.063	90.09
836.235	128.42
836.407	73.8
836.579	153.41
836.751	-22.65
836.923	93.24
837.095	150.45
837.267	104.53
837.439	125.64
837.611	64.18
837.782	121.57
837.954	158.78
838.126	128.79
838.298	201.36
838.47	247.27
838.642	10.31
838.814	203.76
838.985	47.7
839.157	30.85
839.329	4.38
839.501	236.71
839.672	-7.1
839.844	183.21
840.016	58.99
840.188	199.5
840.359	176.36
840.531	58.99
840.702	30.3
840.874	279.66
841.046	36.22
841.217	46.59
841.389	70.1
841.56	137.12
841.732	-14.5
841.903	93.24
842.075	27.71
842.246	70.84
842.418	214.5
842.589	100.28
842.761	138.97
842.932	94.35
843.104	226.53
843.275	98.43
843.446	36.22
843.618	53.81
843.789	150.08
843.96	-39.12
844.132	76.95
844.303	126.75
844.474	28.63
844.646	123.79
844.817	-21.91
844.988	55.66
845.159	251.52
845.331	158.04
845.502	0.86
845.673	98.06
845.844	-65.6
846.015	203.58
846.186	74.73
846.357	96.76
846.528	88.98
846.7	16.6
846.871	66.77
847.042	63.62
847.213	107.87
847.384	388.33
847.555	169.88
847.726	10.68
847.897	183.95
848.067	-25.79
848.238	160.07
848.409	79.17
848.58	184.69
848.751	116.38
848.922	102.31
849.093	108.61
849.264	101.2
849.434	172.11
849.605	36.78
849.776	36.59
849.947	-1.36
850.117	55.85
850.288	160.63
850.459	18.27
850.63	184.88
850.8	155.44
850.971	255.41
851.142	27.34
851.312	-120.58
851.483	-22.28
851.653	106.02
851.824	115.83
851.995	36.96
852.165	190.43
852.336	77.32
852.506	167.85
852.677	172.85
852.847	101.76
853.018	109.35
853.188	45.85
853.358	169.7
853.529	189.14
853.699	141.74
853.87	134.71
854.04	-46.9
854.21	46.03
854.381	84.73
854.551	208.58
854.721	43.26
854.892	121.38
855.062	-18.57
855.232	38.26
855.402	118.42
855.573	89.54
855.743	133.41
855.913	27.52
856.083	87.5
856.253	123.23
856.423	5.49
856.594	60.84
856.764	137.12
856.934	100.09
857.104	42.89
857.274	176.18
857.444	31.22
857.614	58.44
857.784	119.53
857.954	4.75
858.124	9.01
858.294	-20.98
858.464	181.36
858.634	8.64
858.804	116.94
858.974	-17.83
859.143	-18.39
859.313	2.72
859.483	111.57
859.653	4.38
859.823	85.1
859.993	39.56
860.162	127.31
860.332	123.79
860.502	44
860.672	119.9
860.841	136.19
861.011	69.55
861.181	-22.83
861.35	241.53
861.52	79.36
861.69	87.32
861.859	94.35
862.029	58.44
862.198	52.7
862.368	97.13
862.538	72.51
862.707	110.09
862.877	125.27
863.046	159.15
863.216	-3.02
863.385	121.01
863.555	101.02
863.724	204.69
863.893	63.81
864.063	254.67
864.232	264.48
864.402	52.33
864.571	17.34
864.74	86.76
864.91	-27.83
865.079	123.97
865.248	79.91
865.418	133.6
865.587	116.2
865.756	82.5
865.925	115.83
866.094	256.89
866.264	148.59
866.433	51.22
866.602	131.19
866.771	34.56
866.94	76.58
867.109	47.33
867.278	79.36
867.448	77.51
867.617	40.3
867.786	144.89
867.955	44
868.124	24.19
868.293	93.43
868.462	16.04
868.631	166.18
868.8	210.43
868.969	103.61
869.137	111.2
869.306	86.02
869.475	116.38
869.644	24.56
869.813	33.08
869.982	111.38
870.151	45.48
870.319	51.77
870.488	73.8
870.657	117.68
870.826	15.12
870.995	46.78
871.163	44.37
871.332	103.42
871.501	104.9
871.669	42.89
871.838	176.92
872.007	140.82
872.175	81.76
872.344	26.6
872.512	-76.15
872.681	40.3
872.85	135.82
873.018	50.48
873.187	-21.17
873.355	188.21
873.524	20.12
873.692	103.24
873.861	122.49
874.029	79.91
874.197	151.74
874.366	167.48
874.534	108.98
874.703	-0.62
874.871	90.09
875.039	12.53
875.208	27.52
875.376	148.96
875.544	198.76
875.713	111.2
875.881	89.72
876.049	134.9
876.217	128.23
876.386	83.8
876.554	117.49
876.722	177.84
876.89	200.06
877.058	94.35
877.226	73.06
877.395	22.34
877.563	83.99
877.731	31.78
877.899	61.59
878.067	48.07
878.235	22.52
878.403	29.93
878.571	58.25
878.739	74.73
878.907	206.35
879.075	119.71
879.243	44.55
879.411	-4.69
879.579	14.56
879.747	82.87
879.914	44.55
880.082	23.08
880.25	34.56
880.418	71.58
880.586	-23.57
880.754	151.74
880.921	110.83
881.089	24.19
881.257	104.16
881.425	58.81
881.592	112.31
881.76	67.51
881.928	201.54
882.095	108.79
882.263	163.96
882.431	47.15
882.598	256.52
882.766	13.45
882.933	62.14
883.101	16.78
883.269	27.89
883.436	95.09
883.604	72.69
883.771	236.71
883.939	9.56
884.106	-34.31
884.273	144.52
884.441	92.5
884.608	35.3
884.776	154.52
884.943	209.5
885.11	-28.2
885.278	-9.5
885.445	76.77
885.613	85.1
885.78	26.97
885.947	39.93
886.114	151.93
886.282	167.85
886.449	75.1
886.616	126.56
886.783	37.7
886.951	78.25
887.118	11.6
887.285	193.77
887.452	23.82
887.619	23.08
887.786	-104.29
887.953	40.11
888.12	31.22
888.287	142.3
888.455	158.59
888.622	37.52
888.789	50.66
888.956	56.77
889.123	32.15
889.29	10.49
889.456	54.74
889.623	35.11
889.79	66.21
889.957	151
890.124	72.32
890.291	128.42
890.458	55.85
890.625	199.5
890.791	105.09
890.958	13.64
891.125	171.55
891.292	113.42
891.459	61.96
891.625	100.46
891.792	126.75
891.959	-75.41
892.125	-2.84
892.292	-5.06
892.459	57.7
892.625	149.71
892.792	175.07
892.959	-44.49
893.125	292.44
893.292	-45.79
893.458	115.83
893.625	137.12
893.791	81.02
893.958	21.6
894.124	143.41
894.291	2.16
894.457	60.84
894.624	63.07
894.79	76.21
894.957	79.17
895.123	92.87
895.289	88.98
895.456	200.43
895.622	46.03
895.788	86.76
895.955	44.55
896.121	161
896.287	290.4
896.454	48.81
896.62	42.33
896.786	53.62
896.952	119.9
897.119	137.12
897.285	130.64
897.451	27.34
897.617	158.41
897.783	108.98
897.949	18.27
898.115	58.25
898.281	-21.72
898.448	214.13
898.614	28.08
898.78	53.62
898.946	119.9
899.112	205.8
899.278	-35.24
899.444	38.26
899.61	258.56
899.775	75.1
899.941	99.35
900.107	50.66
900.273	86.58
900.439	113.61
900.605	48.63
900.771	124.16
900.937	107.87
901.102	198.58
901.268	119.16
901.434	24.37
901.6	109.53
901.766	133.23
901.931	195.25
902.097	116.75
902.263	139.15
902.428	158.04
902.594	-18.2
902.76	43.07
902.925	36.41
903.091	148.78
903.256	35.85
903.422	194.51
903.588	22.71
903.753	34.37
903.919	124.53
904.084	106.2
904.25	108.42
904.415	245.05
904.581	57.33
904.746	210.8
904.912	122.86
905.077	62.14
905.242	17.71
905.408	24.56
905.573	72.14
905.738	63.62
905.904	759.14
906.069	759.14
