Data from FLMT087451__16__14-06-12-779.txt Node

Date: Tue Jun 04 14:06:12 JST 2024
User: power
Spectrometer: FLMT08745
Trigger mode: 0
Integration Time (sec): 2.000000E-1
Scans to average: 11
Electric dark correction enabled: true
Nonlinearity correction enabled: false
Boxcar width: 0
XAxis mode: Wavelengths
Number of Pixels in Spectrum: 3648
>>>>>Begin Spectral Data<<<<<
194.923	-322.24
195.148	-322.24
195.372	-322.24
195.597	-317.8
195.821	-316.69
196.046	83.92
196.271	-34
196.495	-97.13
196.72	-1.42
196.944	-36.41
197.169	-35.48
197.393	80.22
197.618	15.98
197.842	78
198.067	-2.53
198.291	-127.68
198.516	76.52
198.74	-110.83
198.964	106.32
199.189	1.36
199.413	126.5
199.637	73.56
199.862	-6.05
200.086	46.9
200.31	185
200.535	-0.68
200.759	199.44
200.983	-70.47
201.207	-43.26
201.432	-13.08
201.656	141.87
201.88	-10.68
202.104	-56.22
202.328	47.45
202.552	71.52
202.777	39.31
203.001	67.82
203.225	-23.08
203.449	-130.08
203.673	33.01
203.897	-1.23
204.121	-13.45
204.345	96.51
204.569	-47.33
204.793	31.72
205.017	34.31
205.241	102.44
205.465	-46.59
205.689	-35.67
205.912	10.24
206.136	-78.99
206.36	17.65
206.584	26.35
206.808	-104.53
207.032	73.74
207.255	76.15
207.479	81.33
207.703	-7.9
207.927	-0.86
208.15	-89.91
208.374	-32.15
208.598	-72.69
208.822	22.46
209.045	-3.09
209.269	14.87
209.492	208.51
209.716	117.25
209.94	40.97
210.163	92.62
210.387	110.03
210.61	93.18
210.834	-20.49
211.057	7.1
211.281	-59.73
211.504	-39.93
211.728	-10.86
211.951	167.05
212.175	187.78
212.398	-24.56
212.622	-28.45
212.845	184.63
213.068	17.46
213.292	43.01
213.515	-64.92
213.738	-13.64
213.962	-12.53
214.185	-47.33
214.408	35.98
214.631	116.88
214.855	45.23
215.078	-34.19
215.301	71.15
215.524	-8.64
215.747	78.18
215.971	-29.74
216.194	-9.38
216.417	10.8
216.64	78.18
216.863	717.24
217.086	55.41
217.309	-24.93
217.532	98.73
217.755	-56.96
217.978	59.67
218.201	117.62
218.424	122.8
218.647	-29.74
218.87	-12.34
219.093	107.81
219.316	123.54
219.539	19.31
219.762	-16.41
219.985	-7.71
220.207	-147.3
220.43	30.42
220.653	60.04
220.876	-29.93
221.099	113.91
221.321	3.95
221.544	-26.23
221.767	86.7
221.99	-17.71
222.212	47.45
222.435	69.3
222.658	117.06
222.88	-74.73
223.103	174.64
223.326	-108.05
223.548	57.45
223.771	-6.42
223.993	-19.56
224.216	-7.53
224.438	41.53
224.661	26.35
224.883	58.19
225.106	202.4
225.328	-63.25
225.551	80.22
225.773	-30.11
225.996	-2.53
226.218	12.65
226.44	55.41
226.663	68.19
226.885	-28.08
227.108	14.69
227.33	55.41
227.552	23.2
227.774	15.8
227.997	48.93
228.219	33.57
228.441	124.65
228.663	148.35
228.886	-6.79
229.108	-21.41
229.33	13.02
229.552	-55.29
229.774	69.3
229.996	33.38
230.219	86.15
230.441	-0.68
230.663	49.12
230.885	-41.96
231.107	5.25
231.329	35.79
231.551	137.98
231.773	-22.34
231.995	20.24
232.217	-18.82
232.439	-0.31
232.661	-11.23
232.883	-12.9
233.105	-26.04
233.326	-18.27
233.548	108.18
233.77	-10.12
233.992	146.68
234.214	-17.71
234.436	-62.33
234.657	37.27
234.879	200.18
235.101	-83.8
235.323	27.28
235.544	23.39
235.766	42.09
235.988	99.1
236.21	69.85
236.431	146.5
236.653	76.33
236.874	134.65
237.096	70.78
237.318	-88.43
237.539	59.12
237.761	17.65
237.982	-23.26
238.204	187.59
238.425	-44.55
238.647	43.2
238.868	-26.23
239.09	70.59
239.311	-89.72
239.533	13.76
239.754	65.97
239.975	-7.53
240.197	-33.45
240.418	6.36
240.64	66.15
240.861	41.72
241.082	81.89
241.304	46.53
241.525	15.61
241.746	-4.57
241.967	-113.61
242.189	8.39
242.41	96.14
242.631	260.72
242.852	-46.78
243.073	100.59
243.294	-9.01
243.516	43.38
243.737	3.02
243.958	-71.21
244.179	9.5
244.4	164.64
244.621	-32.52
244.842	19.13
245.063	149.64
245.284	66.15
245.505	37.64
245.726	49.49
245.947	114.28
246.168	-16.41
246.389	-4.75
246.61	83.37
246.831	148.9
247.052	-1.05
247.272	48.01
247.493	10.98
247.714	125.76
247.935	-52.33
248.156	91.14
248.376	101.14
248.597	127.8
248.818	20.24
249.039	-19.56
249.259	35.98
249.48	-72.51
249.701	73.56
249.921	-31.41
250.142	-32.89
250.363	70.22
250.583	28.57
250.804	36.53
251.025	124.65
251.245	108.92
251.466	83.74
251.686	0.06
251.907	-46.4
252.127	92.62
252.348	50.05
252.568	-2.53
252.789	80.59
253.009	86.7
253.23	162.6
253.45	64.49
253.67	69.67
253.891	-53.44
254.111	114.65
254.331	57.08
254.552	34.12
254.772	52.08
254.992	22.46
255.213	-44.55
255.433	125.02
255.653	11.91
255.873	60.97
256.093	110.21
256.314	-18.45
256.534	-30.67
256.754	177.41
256.974	3.58
257.194	-36.78
257.414	7.84
257.634	45.6
257.855	-7.16
258.075	-26.41
258.295	16.72
258.515	-24.19
258.735	102.99
258.955	37.83
259.175	11.35
259.395	30.42
259.615	103.92
259.835	93.37
260.054	-2.9
260.274	91.7
260.494	85.96
260.714	200.92
260.934	55.41
261.154	85.4
261.374	-21.78
261.593	16.72
261.813	-81.39
262.033	1.54
262.253	-0.12
262.472	71.15
262.692	6.17
262.912	59.3
263.132	53.93
263.351	102.07
263.571	191.11
263.791	71.71
264.01	172.04
264.23	79.85
264.449	4.13
264.669	185.93
264.888	140.57
265.108	-3.83
265.328	183.52
265.547	27.09
265.767	75.04
265.986	-60.66
266.205	83.37
266.425	28.2
266.644	53.38
266.864	-80.84
267.083	121.13
267.303	19.5
267.522	57.08
267.741	32.64
267.961	130.02
268.18	-57.88
268.399	89.85
268.618	48.01
268.838	130.21
269.057	-33.63
269.276	46.71
269.495	53.75
269.715	170.56
269.934	-31.41
270.153	105.58
270.372	-72.51
270.591	89.85
270.81	134.09
271.029	84.66
271.249	57.82
271.468	-39.74
271.687	114.1
271.906	64.67
272.125	94.48
272.344	92.62
272.563	-9.01
272.782	4.87
273.001	-36.22
273.22	43.01
273.439	84.85
273.657	76.15
273.876	110.77
274.095	-80.28
274.314	102.62
274.533	147.05
274.752	1.73
274.971	73.56
275.189	181.86
275.408	120.02
275.627	18.02
275.846	156.31
276.064	17.83
276.283	-67.32
276.502	81.89
276.72	-23.63
276.939	-7.34
277.158	2.47
277.376	-18.64
277.595	48.01
277.814	24.68
278.032	110.77
278.251	-34.56
278.469	-38.44
278.688	36.9
278.906	208.33
279.125	58.93
279.343	-9.38
279.562	4.13
279.78	-89.91
279.999	44.68
280.217	10.43
280.435	21.72
280.654	-29.37
280.872	80.96
281.091	77.81
281.309	90.96
281.527	116.14
281.746	16.91
281.964	-48.44
282.182	33.75
282.4	47.45
282.619	199.44
282.837	180.37
283.055	-21.6
283.273	-1.79
283.491	29.68
283.71	73.56
283.928	-12.34
284.146	2.84
284.364	6.73
284.582	17.28
284.8	49.49
285.018	59.12
285.236	-82.87
285.454	113.91
285.672	81.52
285.89	-4.01
286.108	-45.29
286.326	51.71
286.544	58.93
286.762	-2.53
286.98	-79.91
287.198	165.19
287.416	319.96
287.634	131.69
287.851	54.86
288.069	67.08
288.287	25.42
288.505	-0.12
288.723	53.75
288.94	75.22
289.158	21.54
289.376	162.42
289.594	33.2
289.811	-48.44
290.029	9.69
290.247	205.37
290.464	105.21
290.682	-51.96
290.9	84.66
291.117	87.44
291.335	16.91
291.552	-75.47
291.77	48.56
291.987	5.8
292.205	38.38
292.422	43.75
292.64	121.69
292.857	-66.77
293.075	46.9
293.292	23.02
293.51	70.59
293.727	4.13
293.945	28.2
294.162	26.72
294.379	5.25
294.597	48.75
294.814	15.61
295.031	29.5
295.249	85.78
295.466	31.16
295.683	31.72
295.9	61.71
296.118	-13.45
296.335	-63.62
296.552	64.3
296.769	135.76
296.986	73.74
297.204	19.13
297.421	15.06
297.638	36.9
297.855	74.48
298.072	-12.53
298.289	59.86
298.506	7.47
298.723	106.51
298.94	48.19
299.157	75.41
299.374	46.34
299.591	124.28
299.808	-39.93
300.025	-39.74
300.242	-20.86
300.459	97.62
300.676	-37.15
300.893	-26.23
301.109	84.11
301.326	105.4
301.543	86.89
301.76	-24.93
301.977	-37.52
302.193	-24.19
302.41	127.43
302.627	-71.77
302.844	-31.78
303.06	-9.38
303.277	18.76
303.494	33.38
303.71	28.94
303.927	99.29
304.144	-4.75
304.36	42.64
304.577	19.69
304.793	71.89
305.01	-33.45
305.227	17.09
305.443	39.12
305.66	209.99
305.876	-109.9
306.093	10.98
306.309	52.64
306.526	-79.54
306.742	83.92
306.958	53.19
307.175	50.42
307.391	-16.97
307.608	117.06
307.824	106.32
308.04	110.77
308.257	25.42
308.473	200.37
308.689	4.5
308.905	122.06
309.122	-4.94
309.338	-58.99
309.554	71.34
309.77	44.12
309.986	65.41
310.203	-119.16
310.419	2.28
310.635	45.42
310.851	-52.33
311.067	135.39
311.283	50.97
311.499	-40.11
311.715	23.39
311.931	126.13
312.147	50.79
312.363	-102.5
312.579	126.87
312.795	65.78
313.011	-50.66
313.227	-34.19
313.443	173.15
313.659	62.08
313.875	20.06
314.091	93.37
314.307	112.43
314.523	14.5
314.738	18.39
314.954	151.12
315.17	-7.16
315.386	33.94
315.602	6.73
315.817	-2.53
316.033	15.8
316.249	-1.6
316.465	54.12
316.68	-18.64
316.896	57.82
317.112	-56.4
317.327	-41.22
317.543	275.53
317.758	-13.08
317.974	69.11
318.19	89.85
318.405	10.43
318.621	43.75
318.836	-9.56
319.052	0.99
319.267	82.81
319.483	-36.59
319.698	79.3
319.914	-0.31
320.129	17.28
320.344	152.79
320.56	84.85
320.775	161.68
320.99	80.04
321.206	63.19
321.421	97.99
321.636	35.61
321.852	89.66
322.067	33.94
322.282	-34.93
322.498	-20.49
322.713	93.92
322.928	127.43
323.143	-14.38
323.358	41.53
323.574	135.94
323.789	-3.64
324.004	10.43
324.219	3.21
324.434	120.39
324.649	-1.79
324.864	95.59
325.079	10.06
325.294	-6.42
325.509	-49.74
325.724	121.13
325.939	-1.79
326.154	53.19
326.369	262.02
326.584	15.98
326.799	-21.6
327.014	132.98
327.229	-4.75
327.444	45.42
327.659	-23.63
327.873	62.63
328.088	120.02
328.303	13.95
328.518	-48.63
328.733	-40.11
328.947	71.89
329.162	-23.45
329.377	42.83
329.591	97.07
329.806	-40.85
330.021	-35.85
330.235	137.06
330.45	75.41
330.665	-80.65
330.879	-9.38
331.094	89.66
331.309	39.12
331.523	72.82
331.738	67.82
331.952	63.56
332.167	121.32
332.381	-65.66
332.596	34.31
332.81	-47.7
333.025	-15.86
333.239	74.85
333.453	-2.16
333.668	38.94
333.882	109.47
334.097	21.35
334.311	21.35
334.525	81.33
334.74	18.94
334.954	-39.37
335.168	117.99
335.382	65.04
335.597	33.38
335.811	-61.77
336.025	37.83
336.239	-60.84
336.453	84.29
336.668	48.38
336.882	-50.85
337.096	72.63
337.31	87.26
337.524	88.92
337.738	54.86
337.952	35.61
338.166	22.46
338.38	20.98
338.594	99.66
338.808	-28.45
339.022	182.6
339.236	25.42
339.45	51.53
339.664	216.1
339.878	71.71
340.092	-35.48
340.306	-44
340.52	52.27
340.734	85.22
340.948	17.09
341.161	58.19
341.375	80.78
341.589	59.49
341.803	34.5
342.017	37.27
342.23	21.17
342.444	150.2
342.658	41.9
342.871	93.37
343.085	-5.12
343.299	-53.81
343.512	-2.16
343.726	-47.7
343.94	73.74
344.153	95.03
344.367	120.02
344.58	-15.67
344.794	9.5
345.008	-33.26
345.221	-20.67
345.435	28.39
345.648	53.19
345.862	5.8
346.075	37.27
346.288	12.28
346.502	113.54
346.715	75.22
346.929	-98.06
347.142	84.48
347.355	58.19
347.569	78.37
347.782	95.59
347.995	56.34
348.209	30.98
348.422	-74.91
348.635	50.79
348.848	78.56
349.062	-14.93
349.275	178.89
349.488	69.48
349.701	103.18
349.914	-122.49
350.128	51.71
350.341	17.09
350.554	-130.27
350.767	-7.16
350.98	67.45
351.193	13.95
351.406	-27.71
351.619	67.26
351.832	74.48
352.045	-14.93
352.258	-12.16
352.471	28.76
352.684	19.13
352.897	40.97
353.11	-18.82
353.323	74.67
353.536	-104.72
353.748	97.62
353.961	-30.85
354.174	1.17
354.387	40.23
354.6	-53.07
354.813	-11.6
355.025	83
355.238	94.29
355.451	38.38
355.664	24.68
355.876	128.54
356.089	137.43
356.302	17.83
356.514	33.01
356.727	4.13
356.94	11.54
357.152	-40.67
357.365	39.12
357.577	-23.63
357.79	-14.75
358.002	-126.38
358.215	-42.15
358.427	7.1
358.64	120.21
358.852	-31.22
359.065	-19.75
359.277	-27.89
359.49	142.24
359.702	147.79
359.915	22.83
360.127	-24.56
360.339	-17.71
360.552	-19.19
360.764	34.87
360.976	69.67
361.189	-17.16
361.401	144.65
361.613	146.13
361.825	-69.73
362.038	69.3
362.25	104.29
362.462	46.53
362.674	8.76
362.886	129.84
363.099	89.48
363.311	116.14
363.523	75.59
363.735	118.91
363.947	55.04
364.159	119.65
364.371	92.25
364.583	0.62
364.795	22.28
365.007	67.26
365.219	-21.41
365.431	28.57
365.643	-3.83
365.855	-40.3
366.067	-89.54
366.279	-15.12
366.491	18.76
366.703	4.87
366.914	10.61
367.126	-12.71
367.338	102.25
367.55	69.11
367.762	33.94
367.974	-7.53
368.185	-44
368.397	75.96
368.609	91.7
368.82	61.71
369.032	130.21
369.244	0.62
369.456	117.25
369.667	38.57
369.879	126.69
370.09	-41.96
370.302	48.01
370.514	135.39
370.725	75.41
370.937	-62.14
371.148	-5.12
371.36	67.63
371.571	-7.34
371.783	33.57
371.994	56.15
372.206	29.5
372.417	227.58
372.629	31.9
372.84	-16.23
373.051	5.25
373.263	119.47
373.474	42.27
373.685	-22.15
373.897	28.02
374.108	70.22
374.319	-32.52
374.531	35.61
374.742	104.29
374.953	20.06
375.164	-53.62
375.375	43.2
375.587	-34
375.798	66.34
376.009	100.96
376.22	120.58
376.431	50.42
376.642	-11.97
376.853	91.14
377.065	76.15
377.276	25.98
377.487	-13.64
377.698	-66.95
377.909	44.86
378.12	79.48
378.331	-36.04
378.542	23.57
378.753	-1.79
378.964	38.75
379.174	96.7
379.385	50.23
379.596	-92.32
379.807	82.44
380.018	-61.59
380.229	180.19
380.44	196.11
380.65	-21.23
380.861	54.12
381.072	48.01
381.283	86.15
381.493	127.43
381.704	112.99
381.915	43.01
382.126	-44.92
382.336	130.39
382.547	119.47
382.757	-0.31
382.968	-67.69
383.179	35.24
383.389	120.39
383.6	18.02
383.81	25.61
384.021	207.03
384.231	175.01
384.442	37.83
384.652	24.31
384.863	149.46
385.073	118.36
385.284	143.9
385.494	42.64
385.705	20.61
385.915	13.21
386.125	0.62
386.336	11.17
386.546	-24.37
386.756	128.54
386.967	-7.53
387.177	129.65
387.387	155.94
387.598	37.27
387.808	17.09
388.018	79.85
388.228	7.1
388.439	78.74
388.649	-18.64
388.859	-39.37
389.069	92.44
389.279	-66.21
389.489	31.72
389.699	-0.31
389.909	14.32
390.12	-65.84
390.33	115.77
390.54	18.02
390.75	165.93
390.96	13.02
391.17	20.43
391.38	-53.62
391.59	-81.02
391.799	0.99
392.009	115.4
392.219	43.94
392.429	10.98
392.639	41.16
392.849	30.79
393.059	122.99
393.269	144.27
393.478	73.37
393.688	152.79
393.898	132.24
394.108	-40.48
394.317	39.68
394.527	-32.89
394.737	70.41
394.947	41.53
395.156	-4.94
395.366	73.19
395.576	132.24
395.785	74.85
395.995	94.29
396.204	82.07
396.414	-82.5
396.624	10.43
396.833	-55.48
397.043	0.62
397.252	38.57
397.462	169.27
397.671	41.16
397.881	-48.44
398.09	52.08
398.299	7.1
398.509	80.04
398.718	49.31
398.928	77.81
399.137	135.76
399.346	49.31
399.556	56.15
399.765	-95.09
399.974	-22.52
400.184	52.08
400.393	89.29
400.602	62.82
400.811	61.15
401.021	18.02
401.23	134.46
401.439	58.56
401.648	106.32
401.857	2.47
402.066	11.72
402.276	10.06
402.485	153.53
402.694	42.64
402.903	93.92
403.112	-32.71
403.321	168.53
403.53	140.2
403.739	-5.49
403.948	21.35
404.157	103.36
404.366	2.28
404.575	-12.34
404.784	112.06
404.993	91.33
405.202	246.65
405.411	206.29
405.619	-14.38
405.828	57.82
406.037	95.77
406.246	13.39
406.455	-21.78
406.663	130.02
406.872	18.02
407.081	87.63
407.29	102.25
407.498	82.26
407.707	45.79
407.916	-7.16
408.124	97.25
408.333	234.8
408.542	-42.52
408.75	54.49
408.959	0.62
409.168	75.41
409.376	26.35
409.585	99.29
409.793	197.04
410.002	95.59
410.21	137.06
410.419	80.59
410.627	23.02
410.836	47.27
411.044	43.2
411.253	47.45
411.461	-12.53
411.669	174.82
411.878	173.9
412.086	1.91
412.294	99.47
412.503	-32.52
412.711	97.44
412.919	97.81
413.128	22.65
413.336	-25.86
413.544	160.75
413.752	125.95
413.961	119.1
414.169	19.69
414.377	111.51
414.585	223.88
414.793	44.68
415.001	13.76
415.209	109.84
415.418	4.5
415.626	122.8
415.834	28.39
416.042	29.31
416.25	-87.32
416.458	-92.5
416.666	-15.3
416.874	120.02
417.082	162.23
417.29	-30.11
417.498	37.83
417.706	12.84
417.913	36.16
418.121	56.9
418.329	183.15
418.537	-3.27
418.745	-21.97
418.953	45.05
419.161	183.15
419.368	70.04
419.576	-57.14
419.784	33.57
419.992	14.13
420.199	136.31
420.407	25.42
420.615	153.53
420.822	83.74
421.03	44.86
421.238	56.71
421.445	-43.44
421.653	-45.66
421.861	95.77
422.068	-7.9
422.276	51.16
422.483	-47.15
422.691	67.82
422.898	273.86
423.106	-71.03
423.313	-17.53
423.521	122.06
423.728	116.32
423.936	70.78
424.143	90.59
424.35	192.78
424.558	70.96
424.765	81.15
424.973	43.94
425.18	8.95
425.387	83.55
425.594	65.23
425.802	270.72
426.009	21.54
426.216	56.71
426.424	158.9
426.631	149.83
426.838	68.56
427.045	45.79
427.252	95.96
427.459	159.27
427.667	194.07
427.874	32.64
428.081	131.32
428.288	145.76
428.495	18.57
428.702	195.74
428.909	50.05
429.116	-3.27
429.323	73.74
429.53	123.91
429.737	6.73
429.944	115.21
430.151	23.39
430.358	171.67
430.565	110.4
430.772	-16.78
430.979	-9.38
431.185	4.13
431.392	-27.89
431.599	112.25
431.806	77.81
432.013	51.34
432.219	55.6
432.426	114.65
432.633	70.41
432.84	102.25
433.046	76.15
433.253	52.08
433.46	159.64
433.666	51.71
433.873	156.68
434.08	189.63
434.286	126.5
434.493	234.25
434.7	73.37
434.906	137.8
435.113	22.83
435.319	225.18
435.526	-1.23
435.732	176.86
435.939	94.29
436.145	19.69
436.352	110.21
436.558	66.15
436.765	249.06
436.971	61.15
437.177	144.46
437.384	-14.19
437.59	58.38
437.796	172.6
438.003	119.84
438.209	294.97
438.415	92.99
438.622	207.22
438.828	214.99
439.034	234.43
439.24	127.61
439.447	178.52
439.653	98.73
439.859	100.96
440.065	143.35
440.271	66.89
440.477	167.79
440.683	157.42
440.89	61.71
441.096	254.98
441.302	224.06
441.508	263.31
441.714	54.86
441.92	61.71
442.126	98.92
442.332	227.21
442.538	117.99
442.744	175.75
442.95	209.44
443.156	137.24
443.361	252.76
443.567	93.92
443.773	205.37
443.979	308.11
444.185	105.58
444.391	72.08
444.596	119.1
444.802	131.32
445.008	402.16
445.214	84.29
445.42	294.23
445.625	105.58
445.831	220.92
446.037	261.83
446.242	210.74
446.448	188.15
446.654	187.59
446.859	157.05
447.065	144.27
447.27	241.84
447.476	159.09
447.682	60.97
447.887	220.92
448.093	236.47
448.298	108.73
448.504	173.71
448.709	124.1
448.915	232.77
449.12	57.82
449.325	159.27
449.531	73.37
449.736	157.6
449.942	34.68
450.147	106.88
450.352	134.65
450.558	118.91
450.763	152.05
450.968	283.3
451.174	88.18
451.379	70.96
451.584	149.27
451.789	114.84
451.995	172.97
452.2	21.35
452.405	12.28
452.61	79.11
452.815	186.85
453.02	85.96
453.226	46.34
453.431	182.04
453.636	53.56
453.841	160.2
454.046	154.09
454.251	133.72
454.456	113.36
454.661	154.46
454.866	108.36
455.071	164.82
455.276	112.8
455.481	145.2
455.686	80.59
455.891	72.08
456.095	111.69
456.3	84.66
456.505	53.38
456.71	190.74
456.915	153.9
457.12	138.17
457.324	38.01
457.529	78.74
457.734	151.87
457.939	77.63
458.144	40.05
458.348	30.79
458.553	137.8
458.758	34.12
458.962	50.05
459.167	119.1
459.372	176.3
459.576	316.81
459.781	151.12
459.985	110.4
460.19	169.64
460.394	112.06
460.599	195.55
460.803	126.5
461.008	234.06
461.212	150.75
461.417	200.92
461.621	102.44
461.826	154.83
462.03	75.04
462.235	167.23
462.439	234.62
462.643	418.45
462.848	261.27
463.052	101.14
463.256	252.76
463.461	177.6
463.665	164.82
463.869	254.61
464.074	148.16
464.278	209.25
464.482	337.18
464.686	114.84
464.89	254.8
465.095	436.03
465.299	198.89
465.503	265.16
465.707	243.13
465.911	222.4
466.115	307
466.319	231.28
466.523	477.13
466.727	297.19
466.931	383.27
467.135	301.45
467.339	366.06
467.543	347.36
467.747	387.35
467.951	366.8
468.155	347.17
468.359	514.53
468.563	404.01
468.767	476.76
468.971	406.04
469.175	425.67
469.379	454.55
469.582	574.51
469.786	477.87
469.99	429.37
470.194	513.79
470.397	653.56
470.601	578.21
470.805	699.28
471.009	641.52
471.212	638.75
471.416	663.92
471.62	704.65
471.823	671.88
472.027	785.92
472.23	587.47
472.434	925.51
472.638	760.56
472.841	786.11
473.045	820.54
473.248	819.61
473.452	901.44
473.655	936.06
473.859	898.48
474.062	880.34
474.266	987.71
474.469	897.74
474.672	1002.89
474.876	1006.78
475.079	996.97
475.283	1106.93
475.486	1090.08
475.689	1058.61
475.893	1126.74
476.096	1267.06
476.299	1141.55
476.502	1174.13
476.706	1231.52
476.909	1266.88
477.112	1348.15
477.315	1298.54
477.519	1400.36
477.722	1382.95
477.925	1287.06
478.128	1341.67
478.331	1362.4
478.534	1317.6
478.737	1506.99
478.94	1391.65
479.143	1352.41
479.346	1525.5
479.549	1557.53
479.752	1486.81
479.955	1507.91
480.158	1641.39
480.361	1636.95
480.564	1610.47
480.767	1573.45
480.97	1621.21
481.173	1589.74
481.376	1724.7
481.579	1656.38
481.782	1667.12
481.984	1784.31
482.187	1808.56
482.39	1851.88
482.593	1853.17
482.796	1871.69
482.998	1882.05
483.201	1944.26
483.404	1865.95
483.606	1756.72
483.809	2052.55
484.012	1972.58
484.214	1979.61
484.417	2016.08
484.62	1953.14
484.822	1985.35
485.025	2160.3
485.227	2268.6
485.43	2121.61
485.632	2088.47
485.835	2290.44
486.037	2288.03
486.24	2198.06
486.442	2558.32
486.645	2284.7
486.847	2350.24
487.05	2397.26
487.252	2411.14
487.455	2433.73
487.657	2506.48
487.859	2507.78
488.062	2490.75
488.264	2552.21
488.466	2570.91
488.668	2679.39
488.871	2578.87
489.073	2749.18
489.275	2774.73
489.477	2738.08
489.68	2784.17
489.882	2857.48
490.084	2882.29
490.286	3034.46
490.488	2946.53
490.69	2995.22
490.893	3154.24
491.095	2975.96
491.297	3234.4
491.499	3302.9
491.701	3368.62
491.903	3307.15
492.105	3417.3
492.307	3406.57
492.509	3636.49
492.711	3460.07
492.913	3690.74
493.115	3698.14
493.317	3657.6
493.518	3731.46
493.72	3782.19
493.922	3855.31
494.124	3909.18
494.326	4071.35
494.528	3947.32
494.73	4122.63
494.931	4272.4
495.133	4154.48
495.335	4315.72
495.537	4309.06
495.738	4585.45
495.94	4481.22
496.142	4496.03
496.343	4599.7
496.545	4623.96
496.747	4817.78
496.948	4739.66
497.15	4930.71
497.351	4877.76
497.553	4962.18
497.755	5146.94
497.956	5364.83
498.158	5253.38
498.359	5360.76
498.561	5370.38
498.762	5307.81
498.964	5556.07
499.165	5675.66
499.366	5631.78
499.568	5678.62
499.769	5900.4
499.971	5870.22
500.172	6023.51
500.373	6058.31
500.575	6110.52
500.776	6293.98
500.977	6253.25
501.178	6442.26
501.38	6550.01
501.581	6671.64
501.782	6665.9
501.983	6766.6
502.185	6754.39
502.386	6943.4
502.587	6891.19
502.788	7175.55
502.989	7127.6
503.19	7433.8
503.391	7469.16
503.593	7538.77
503.794	7599.3
503.995	7734.81
504.196	7982.51
504.397	7831.45
504.598	7997.88
504.799	8072.3
505	8338.7
505.201	8426.63
505.402	8496.98
505.602	8497.16
505.803	8535.48
506.004	8735.61
506.205	8956.28
506.406	9059.95
506.607	9147.88
506.808	9332.64
507.008	9365.59
507.209	9543.68
507.41	9729.92
507.611	9579.23
507.812	9715.66
508.012	9831.74
508.213	9874.5
508.414	10038.34
508.614	10107.58
508.815	10165.15
509.016	10591.86
509.216	10592.61
509.417	10578.35
509.617	10679.43
509.818	10733.86
510.019	10936.38
510.219	10994.14
510.42	10969.89
510.62	11222.59
510.821	11273.5
511.021	11403.09
511.222	11501.57
511.422	11563.78
511.623	11635.42
511.823	11910.89
512.023	11706.88
512.224	12063.25
512.424	12063.8
512.624	12203.57
512.825	12188.02
513.025	12435.91
513.225	12416.65
513.426	12612.52
513.626	12573.27
513.826	12880.95
514.026	13030.35
514.227	13073.66
514.427	13110.13
514.627	13240.09
514.827	13349.13
515.027	13387.45
515.228	13686.8
515.428	13836.2
515.628	13749.38
515.828	13901.73
516.028	13928.21
516.228	14265.14
516.428	14261.8
516.628	14280.69
516.828	14297.16
517.028	14523.2
517.228	14578.93
517.428	14638.17
517.628	14701.29
517.828	15075.25
518.028	15150.96
518.228	15053.22
518.428	15071.92
518.627	15178.92
518.827	15146.52
519.027	15318.5
519.227	15687.46
519.427	15594.53
519.626	15429.58
519.826	15609.52
520.026	15680.98
520.226	15798.35
520.425	15906.09
520.625	15816.68
520.825	15892.76
521.024	15904.43
521.224	15795.76
521.424	16099.92
521.623	16024.57
521.823	16030.68
522.023	16046.97
522.222	16210.81
522.422	16117.32
522.621	16331.51
522.821	16368.72
523.02	16196.74
523.22	16290.23
523.419	16412.78
523.619	16352.62
523.818	16322.07
524.017	16400.94
524.217	16380.02
524.416	16517.38
524.616	16743.05
524.815	16405.01
525.014	16632.16
525.214	16504.24
525.413	16684.36
525.612	16709.54
525.812	16696.95
526.011	16591.06
526.21	16816.91
526.409	16774.15
526.608	16877.08
526.808	16845.98
527.007	16942.06
527.206	16974.64
527.405	16736.94
527.604	16833.95
527.803	17002.6
528.003	16883
528.202	17163.29
528.401	17141.07
528.6	16862.27
528.799	17142
528.998	16927.06
529.197	16910.59
529.396	17138.48
529.595	17149.59
529.794	17157.92
529.993	17094.79
530.192	17277.51
530.39	17153.29
530.589	17207.35
530.788	17166.8
530.987	16997.97
531.186	17149.77
531.385	17117.56
531.583	17277.88
531.782	17169.76
531.981	17007.78
532.18	17099.79
532.379	17083.5
532.577	17185.69
532.776	17056.28
532.975	17126.63
533.173	17093.86
533.372	17120.34
533.571	16975.38
533.769	17031.66
533.968	17345.82
534.166	16960.39
534.365	16999.63
534.564	16993.15
534.762	16972.79
534.961	16959.28
535.159	17002.97
535.358	17021.29
535.556	16896.15
535.755	16905.59
535.953	16814.14
536.151	17008.52
536.35	16733.98
536.548	16826.36
536.747	16783.78
536.945	16739.9
537.143	16699.91
537.342	16655.11
537.54	16734.16
537.738	16820.8
537.937	16773.59
538.135	16657.15
538.333	16556.44
538.531	16723.24
538.73	16636.97
538.928	16609.94
539.126	16487.39
539.324	16778.96
539.522	16688.07
539.72	16493.13
539.919	16648.82
540.117	16580.88
540.315	16574.03
540.513	16614.76
540.711	16490.72
540.909	16411.3
541.107	16482.76
541.305	16450.18
541.503	16578.84
541.701	16355.21
541.899	16402.6
542.097	16402.97
542.295	16313.19
542.493	16196.56
542.691	16161.38
542.888	16286.9
543.086	16170.82
543.284	16292.64
543.482	16244.32
543.68	16145.65
543.878	16292.45
544.075	16052.34
544.273	15967.93
544.471	16013.84
544.669	16086.78
544.866	16039.57
545.064	15960.89
545.262	15973.48
545.459	15850.56
545.657	15975.33
545.855	15748
546.052	15621.74
546.25	15823.53
546.447	15793.72
546.645	15538.06
546.842	15689.13
547.04	15403.66
547.238	15359.42
547.435	15494.37
547.633	15362.93
547.83	15350.53
548.027	15254.26
548.225	15250.38
548.422	15308.14
548.62	14987.68
548.817	15163.74
549.014	14996.94
549.212	15057.11
549.409	15068.4
549.606	14929.92
549.804	14959.73
550.001	14800.71
550.198	14844.03
550.396	14533.38
550.593	14761.46
550.79	14518.76
550.987	14535.61
551.184	14494.88
551.382	14737.95
551.579	14375.47
551.776	14314.57
551.973	14368.25
552.17	14342.7
552.367	14461.74
552.564	14108.33
552.761	14282.17
552.958	14182.01
553.155	14253.84
553.353	14229.96
553.55	14087.05
553.746	13971.16
553.943	14210.89
554.14	14133.51
554.337	14012.44
554.534	14072.42
554.731	13882.67
554.928	13918.4
555.125	13984.11
555.322	13758.82
555.519	13670.33
555.715	13685.14
555.912	13599.79
556.109	13538.52
556.306	13542.77
556.503	13524.63
556.699	13557.58
556.896	13423.74
557.093	13346.91
557.289	13246.94
557.486	13261.2
557.683	13472.61
557.879	13093.29
558.076	13031.46
558.273	13042.19
558.469	12979.62
558.666	12885.21
558.862	12882.8
559.059	12775.61
559.255	12783.94
559.452	12640.1
559.648	12545.69
559.845	12598.82
560.041	12431.65
560.238	12587.15
560.434	12397.03
560.631	12340.2
560.827	12317.42
561.023	12184.32
561.22	12118.78
561.416	12044.55
561.612	12039
561.809	11884.23
562.005	11903.67
562.201	11866.09
562.398	11880.71
562.594	11715.58
562.79	11554.71
562.986	11666.52
563.182	11567.11
563.379	11510.28
563.575	11369.39
563.771	11350.51
563.967	11455.85
564.163	11161.13
564.359	11162.24
564.555	11325.89
564.751	10990.81
564.947	10940.46
565.144	10961.75
565.34	10997.29
565.536	11038.57
565.732	10786.06
565.928	10765.51
566.123	10632.59
566.319	10700.35
566.515	10674.62
566.711	10531.88
566.907	10599.08
567.103	10373.23
567.299	10194.21
567.495	10393.97
567.691	10091.84
567.886	10367.86
568.082	10190.33
568.278	10181.44
568.474	10158.3
568.669	10110.17
568.865	9993.72
569.061	9880.06
569.257	9936.33
569.452	9804.71
569.648	9675.49
569.844	9676.42
570.039	9624.4
570.235	9664.94
570.43	9533.68
570.626	9509.99
570.822	9605.14
571.017	9517.95
571.213	9285.25
571.408	9266.92
571.604	9284.32
571.799	9151.77
571.995	9162.14
572.19	8984.04
572.385	8903.7
572.581	8980.34
572.776	8952.94
572.972	8963.87
573.167	8742.64
573.362	8711.35
573.558	8714.69
573.753	8647.67
573.948	8627.31
574.144	8449.77
574.339	8507.9
574.534	8367.02
574.729	8238.17
574.925	8368.69
575.12	8273.35
575.315	8086.74
575.51	8177.64
575.705	7989.73
575.9	7941.79
576.096	7949.38
576.291	7871.07
576.486	7882.92
576.681	7823.67
576.876	7791.09
577.071	7647.06
577.266	7587.64
577.461	7578.57
577.656	7578.01
577.851	7605.23
578.046	7504.33
578.241	7452.31
578.436	7315.13
578.631	7273.29
578.826	7383.44
579.021	7104.09
579.215	7175.36
579.41	7289.4
579.605	7072.06
579.8	7045.03
579.995	6978.39
580.189	6866.39
580.384	6824.55
580.579	6828.99
580.774	6726.62
580.968	6690.89
581.163	6661.82
581.358	6665.9
581.552	6552.41
581.747	6469.29
581.942	6442.45
582.136	6381.73
582.331	6216.22
582.526	6282.87
582.72	6194.01
582.915	6192.34
583.109	6084.23
583.304	6082.38
583.498	6015.92
583.693	5936.5
583.887	5952.98
584.082	5796.54
584.276	6021.29
584.471	5485.72
584.665	5700.83
584.859	5537.18
585.054	5459.43
585.248	5454.8
585.442	5450.91
585.637	5462.21
585.831	5292.26
586.025	5402.6
586.22	5260.6
586.414	5161.93
586.608	5034.01
586.802	4948.67
586.997	4955.7
587.191	4833.7
587.385	4958.85
587.579	4844.07
587.773	4855.18
587.967	4727.26
588.162	4728.92
588.356	4581.56
588.55	4629.88
588.744	4507.7
588.938	4522.69
589.132	4440.13
589.326	4395.88
589.52	4295.73
589.714	4176.32
589.908	4197.98
590.102	4258.89
590.296	4095.79
590.49	4105.05
590.684	4008.6
590.877	4002.86
591.071	3937.32
591.265	3890.12
591.459	3845.32
591.653	3701.47
591.847	3725.17
592.04	3645.38
592.234	3632.61
592.428	3494.69
592.622	3568.37
592.815	3464.7
593.009	3440.81
593.203	3539.49
593.397	3343.81
593.59	3357.69
593.784	3295.86
593.977	3174.23
594.171	3145.35
594.365	3223.48
594.558	3184.23
594.752	3090
594.945	3024.1
595.139	2948.93
595.332	2898.58
595.526	2892.29
595.719	2836.56
595.913	2875.25
596.106	2773.99
596.3	2693.09
596.493	2745.3
596.687	2685.5
596.88	2655.32
597.073	2686.61
597.267	2561.47
597.46	2532.4
597.653	2565.54
597.847	2437.8
598.04	2475.01
598.233	2541.29
598.426	2225.28
598.62	2353.01
598.813	2146.97
599.006	2308.95
599.199	2190.47
599.392	2141.23
599.586	2144.38
599.779	1998.87
599.972	1981.28
600.165	2050.7
600.358	1933.15
600.551	2089.76
600.744	1883.35
600.937	1880.39
601.13	1851.14
601.323	1820.22
601.516	1776.35
601.709	1818.93
601.902	1741.54
602.095	1763.02
602.288	1726.73
602.481	1639.54
602.674	1556.42
602.867	1658.79
603.06	1611.95
603.252	1414.24
603.445	1625.28
603.638	1442.19
603.831	1525.87
604.024	1336.3
604.216	1442.38
604.409	1340.93
604.602	1171.54
604.795	1409.8
604.987	1262.81
605.18	1268.55
605.373	1342.97
605.565	1211.9
605.758	1213.56
605.951	1063.61
606.143	1174.5
606.336	1233.56
606.528	1144.7
606.721	1007.52
606.913	1102.49
607.106	1141.18
607.298	1093.05
607.491	1030.66
607.683	951.98
607.876	915.33
608.068	857.57
608.261	902.37
608.453	943.09
608.646	926.8
608.838	816.28
609.03	882.93
609.223	742.97
609.415	701.5
609.607	756.12
609.8	789.44
609.992	680.96
610.184	781.66
610.376	725.94
610.569	767.41
610.761	598.57
610.953	595.24
611.145	689.29
611.337	667.63
611.529	670.4
611.722	644.12
611.914	495.27
612.106	538.22
612.298	555.07
612.49	617.83
612.682	836.65
612.874	717.8
613.066	475.47
613.258	561.73
613.45	505.83
613.642	561.55
613.834	516.56
614.026	482.5
614.218	506.2
614.41	488.61
614.602	479.17
614.793	579.14
614.985	501.38
615.177	433.81
615.369	468.25
615.561	349.21
615.753	478.24
615.944	507.49
616.136	404.75
616.328	309.04
616.52	337.36
616.711	257.2
616.903	371.98
617.095	429.18
617.286	245.54
617.478	364.76
617.67	261.09
617.861	353.28
618.053	373.46
618.244	238.69
618.436	260.35
618.627	136.31
618.819	271.27
619.01	382.35
619.202	190
619.393	299.97
619.585	261.09
619.776	308.3
619.968	243.5
620.159	250.54
620.351	213.14
620.542	159.09
620.733	274.05
620.925	146.31
621.116	246.46
621.307	161.68
621.499	261.46
621.69	269.24
621.881	181.67
622.072	234.25
622.264	118.91
622.455	237.39
622.646	307.93
622.837	133.72
623.028	298.67
623.22	185.93
623.411	337.55
623.602	146.68
623.793	218.14
623.984	167.42
624.175	268.49
624.366	265.9
624.557	178.34
624.748	97.99
624.939	192.22
625.13	266.27
625.321	137.24
625.512	106.32
625.703	124.65
625.894	194.81
626.085	82.81
626.276	82.63
626.467	143.9
626.658	157.05
626.848	180.93
627.039	78.74
627.23	102.62
627.421	153.35
627.612	124.84
627.802	212.22
627.993	203.52
628.184	323.66
628.375	235.36
628.565	231.65
628.756	28.94
628.947	107.43
629.137	264.24
629.328	88.92
629.519	36.53
629.709	211.29
629.9	24.5
630.09	98.92
630.281	100.77
630.471	90.77
630.662	78.93
630.852	45.23
631.043	161.86
631.233	166.86
631.424	156.49
631.614	72.26
631.805	224.43
631.995	217.58
632.185	105.95
632.376	172.04
632.566	145.57
632.756	103.92
632.947	85.03
633.137	-4.01
633.327	273.12
633.518	93.92
633.708	201.85
633.898	249.43
634.088	163.53
634.279	45.6
634.469	62.63
634.659	127.61
634.849	145.39
635.039	69.11
635.229	197.22
635.42	34.12
635.61	135.2
635.8	-12.34
635.99	106.69
636.18	102.44
636.37	100.59
636.56	201.11
636.75	178.89
636.94	129.28
637.13	72.45
637.32	211.66
637.51	10.98
637.7	137.61
637.89	108.36
638.079	187.59
638.269	39.49
638.459	15.8
638.649	71.15
638.839	317.92
639.029	198.15
639.218	134.83
639.408	63.19
639.598	119.28
639.788	183.34
639.977	64.3
640.167	108.73
640.357	90.77
640.546	9.13
640.736	71.71
640.926	178.52
641.115	181.86
641.305	102.99
641.495	132.61
641.684	114.84
641.874	133.17
642.063	64.67
642.253	138.72
642.442	158.34
642.632	161.31
642.821	21.54
643.011	19.5
643.2	115.58
643.39	126.5
643.579	159.09
643.768	67.63
643.958	133.54
644.147	84.29
644.336	21.91
644.526	152.79
644.715	73.19
644.904	129.84
645.094	213.14
645.283	1.91
645.472	184.82
645.661	132.06
645.851	25.79
646.04	101.14
646.229	28.57
646.418	117.06
646.607	87.26
646.796	81.7
646.986	103.73
647.175	148.72
647.364	177.78
647.553	199.26
647.742	94.29
647.931	83.37
648.12	40.97
648.309	42.09
648.498	102.25
648.687	229.06
648.876	-10.12
649.065	19.69
649.254	87.26
649.443	-11.42
649.632	260.35
649.82	103.92
650.009	70.04
650.198	-87.5
650.387	43.75
650.576	69.67
650.765	142.61
650.953	76.33
651.142	27.65
651.331	70.96
651.52	95.22
651.708	206.85
651.897	142.79
652.086	14.32
652.274	-50.29
652.463	97.25
652.652	136.13
652.84	49.49
653.029	108.73
653.217	106.51
653.406	113.17
653.594	70.78
653.783	123.91
653.972	87.63
654.16	133.91
654.349	53.75
654.537	107.06
654.725	247.58
654.914	109.66
655.102	0.25
655.291	56.34
655.479	39.31
655.667	84.66
655.856	-1.97
656.044	52.82
656.232	164.08
656.421	164.45
656.609	-1.6
656.797	176.49
656.986	47.08
657.174	117.99
657.362	-7.9
657.55	78.37
657.738	99.29
657.927	96.88
658.115	73.93
658.303	39.68
658.491	127.06
658.679	46.71
658.867	58.38
659.055	-35.67
659.243	89.29
659.431	45.23
659.619	50.23
659.807	132.06
659.995	161.12
660.183	86.7
660.371	-32.89
660.559	237.39
660.747	50.97
660.935	74.11
661.123	-25.67
661.311	40.97
661.499	-26.04
661.687	9.32
661.875	120.39
662.062	126.87
662.25	103.92
662.438	104.66
662.626	105.95
662.813	93.74
663.001	43.01
663.189	-12.16
663.377	20.61
663.564	28.94
663.752	116.14
663.94	4.5
664.127	7.65
664.315	133.72
664.502	2.65
664.69	156.12
664.878	100.4
665.065	74.3
665.253	70.41
665.44	141.31
665.628	51.9
665.815	137.06
666.003	138.17
666.19	79.48
666.378	78.56
666.565	83
666.752	227.4
666.94	161.12
667.127	130.02
667.315	163.16
667.502	50.42
667.689	-99.35
667.877	-12.16
668.064	267.01
668.251	1.54
668.438	51.16
668.626	26.16
668.813	110.95
669	74.67
669.187	-34.74
669.374	48.19
669.562	-45.85
669.749	216.66
669.936	109.84
670.123	-4.38
670.31	180.37
670.497	61.71
670.684	105.4
670.871	-6.23
671.058	99.1
671.245	117.99
671.432	140.39
671.619	37.27
671.806	152.24
671.993	234.43
672.18	100.21
672.367	-6.6
672.554	12.84
672.741	37.09
672.928	74.48
673.115	113.36
673.302	99.66
673.488	117.43
673.675	98.55
673.862	2.84
674.049	124.1
674.235	97.25
674.422	37.64
674.609	100.21
674.796	99.66
674.982	58.01
675.169	49.12
675.356	155.01
675.542	160.94
675.729	139.83
675.916	119.28
676.102	207.22
676.289	203.89
676.475	26.9
676.662	58.93
676.848	101.14
677.035	90.22
677.221	70.04
677.408	137.98
677.594	150.94
677.781	139.83
677.967	130.76
678.154	35.79
678.34	84.48
678.526	-0.12
678.713	125.58
678.899	62.26
679.085	102.44
679.272	53.19
679.458	102.62
679.644	137.24
679.831	-82.69
680.017	214.07
680.203	110.58
680.389	168.34
680.576	218.51
680.762	46.71
680.948	135.57
681.134	47.64
681.32	40.97
681.506	125.21
681.692	84.66
681.879	93.37
682.065	107.81
682.251	189.08
682.437	43.01
682.623	84.48
682.809	-51.77
682.995	-66.03
683.181	189.45
683.367	223.32
683.553	-44.92
683.739	75.78
683.924	100.21
684.11	72.08
684.296	172.78
684.482	272.75
684.668	63.19
684.854	24.13
685.04	109.66
685.225	67.82
685.411	151.49
685.597	48.38
685.783	103.92
685.968	14.5
686.154	61.71
686.34	-9.38
686.526	2.1
686.711	14.69
686.897	278.49
687.083	-4.75
687.268	155.94
687.454	56.15
687.639	155.38
687.825	85.4
688.01	221.47
688.196	120.58
688.382	204.63
688.567	231.65
688.752	234.62
688.938	-9.94
689.123	305.52
689.309	142.24
689.494	-41.96
689.68	180
689.865	225.18
690.05	141.68
690.236	125.02
690.421	59.12
690.606	-75.1
690.792	81.33
690.977	38.94
691.162	90.77
691.348	105.21
691.533	-5.86
691.718	-43.26
691.903	55.23
692.089	67.45
692.274	21.72
692.459	-44.92
692.644	112.25
692.829	249.06
693.014	67.82
693.199	64.12
693.384	40.79
693.569	186.3
693.755	165.38
693.94	98.36
694.125	187.96
694.31	11.54
694.495	81.15
694.68	-28.08
694.864	125.76
695.049	34.12
695.234	0.62
695.419	232.95
695.604	56.15
695.789	107.99
695.974	176.12
696.159	35.42
696.344	115.95
696.528	118.17
696.713	45.79
696.898	144.27
697.083	121.5
697.267	23.2
697.452	66.34
697.637	74.67
697.822	67.08
698.006	119.28
698.191	174.45
698.375	157.79
698.56	131.87
698.745	143.72
698.929	125.58
699.114	107.62
699.298	131.5
699.483	224.43
699.668	32.27
699.852	-83.06
700.037	58.19
700.221	-40.85
700.405	239.61
700.59	212.22
700.774	76.15
700.959	65.6
701.143	89.48
701.328	147.98
701.512	5.99
701.696	25.24
701.881	101.14
702.065	23.2
702.249	27.09
702.433	173.15
702.618	66.89
702.802	141.68
702.986	132.8
703.17	885.33
703.355	34.68
703.539	-1.6
703.723	149.64
703.907	101.14
704.091	246.46
704.275	79.67
704.46	13.02
704.644	172.41
704.828	16.17
705.012	8.02
705.196	122.24
705.38	-29
705.564	285.34
705.748	61.15
705.932	202.59
706.116	78.93
706.3	46.9
706.484	59.67
706.668	146.13
706.851	150.38
707.035	229.8
707.219	198.89
707.403	135.39
707.587	62.82
707.771	193.52
707.954	34.5
708.138	162.79
708.322	100.59
708.506	27.65
708.689	109.1
708.873	-9.19
709.057	64.86
709.241	230.36
709.424	106.51
709.608	161.68
709.792	-6.79
709.975	71.15
710.159	16.35
710.342	95.22
710.526	192.78
710.709	162.97
710.893	81.52
711.077	137.06
711.26	154.83
711.443	105.95
711.627	231.65
711.81	252.57
711.994	57.82
712.177	68
712.361	126.13
712.544	20.06
712.727	124.65
712.911	127.43
713.094	119.65
713.277	148.16
713.461	142.61
713.644	77.81
713.827	215.18
714.011	42.27
714.194	67.82
714.377	120.76
714.56	183.71
714.743	169.82
714.927	155.01
715.11	92.25
715.293	66.89
715.476	150.57
715.659	151.49
715.842	121.69
716.025	31.72
716.208	96.51
716.391	225.55
716.575	158.71
716.758	166.86
716.941	62.26
717.124	127.24
717.306	97.44
717.489	-15.3
717.672	30.61
717.855	136.13
718.038	25.79
718.221	179.08
718.404	-26.04
718.587	22.09
718.77	16.35
718.952	126.32
719.135	115.02
719.318	55.04
719.501	42.46
719.684	118.73
719.866	162.42
720.049	113.91
720.232	118.54
720.414	213.7
720.597	171.3
720.78	111.32
720.962	108.36
721.145	141.68
721.328	98.18
721.51	91.51
721.693	91.7
721.875	85.22
722.058	-44.55
722.24	80.22
722.423	239.43
722.605	26.16
722.788	40.42
722.97	146.68
723.153	23.2
723.335	-33.26
723.518	56.34
723.7	172.78
723.882	63.56
724.065	92.44
724.247	28.94
724.429	76.7
724.612	123.54
724.794	-33.63
724.976	101.14
725.159	85.03
725.341	88.18
725.523	60.04
725.705	74.67
725.888	284.97
726.07	61.52
726.252	-46.78
726.434	31.53
726.616	62.08
726.798	-89.17
726.98	58.19
727.162	53.56
727.345	173.9
727.527	76.89
727.709	3.95
727.891	139.28
728.073	128.17
728.255	24.5
728.437	218.88
728.619	42.46
728.801	110.21
728.982	38.75
729.164	13.21
729.346	138.35
729.528	133.91
729.71	-20.12
729.892	38.2
730.074	109.1
730.255	146.13
730.437	48.19
730.619	78.56
730.801	362.54
730.983	87.26
731.164	162.05
731.346	169.64
731.528	68.56
731.709	129.84
731.891	-2.53
732.073	37.09
732.254	161.86
732.436	39.86
732.617	20.8
732.799	135.94
732.981	54.49
733.162	80.96
733.344	-16.41
733.525	90.22
733.707	140.2
733.888	70.78
734.07	47.27
734.251	39.49
734.433	69.11
734.614	75.59
734.795	154.46
734.977	158.16
735.158	20.43
735.34	170.19
735.521	64.12
735.702	39.12
735.883	79.85
736.065	39.49
736.246	140.39
736.427	160.75
736.609	194.63
736.79	16.54
736.971	7.1
737.152	23.39
737.333	88.92
737.514	85.96
737.696	210.92
737.877	12.65
738.058	53.56
738.239	58.38
738.42	97.07
738.601	55.97
738.782	51.53
738.963	162.23
739.144	40.23
739.325	135.94
739.506	88.74
739.687	22.28
739.868	216.84
740.049	87.07
740.23	125.95
740.411	136.68
740.592	119.84
740.773	4.13
740.953	106.51
741.134	74.85
741.315	65.23
741.496	96.88
741.677	73
741.857	103.18
742.038	4.13
742.219	18.02
742.4	62.08
742.58	-4.01
742.761	53.75
742.942	79.85
743.122	85.22
743.303	75.04
743.484	-17.34
743.664	67.82
743.845	111.51
744.025	118.91
744.206	95.77
744.386	108.92
744.567	-38.44
744.748	90.22
744.928	257.02
745.108	151.12
745.289	36.9
745.469	70.22
745.65	208.33
745.83	34.5
746.011	61.89
746.191	155.94
746.371	13.95
746.552	103.18
746.732	93.74
746.912	202.4
747.093	104.66
747.273	105.21
747.453	34.5
747.633	167.23
747.814	-17.34
747.994	132.8
748.174	152.61
748.354	66.89
748.534	80.59
748.715	97.25
748.895	187.96
749.075	-15.3
749.255	188.33
749.435	45.97
749.615	149.64
749.795	104.84
749.975	122.62
750.155	85.22
750.335	99.29
750.515	97.07
750.695	148.35
750.875	72.82
751.055	125.39
751.235	43.2
751.415	118.91
751.595	19.13
751.775	174.64
751.954	60.78
752.134	171.12
752.314	181.86
752.494	150.94
752.674	17.46
752.854	162.05
753.033	45.79
753.213	11.35
753.393	-12.16
753.572	97.44
753.752	21.54
753.932	73.19
754.111	65.78
754.291	81.7
754.471	46.9
754.65	66.34
754.83	68.93
755.01	104.1
755.189	61.71
755.369	15.98
755.548	122.43
755.728	103.92
755.907	122.8
756.087	64.12
756.266	217.77
756.446	-19.56
756.625	45.05
756.804	391.79
756.984	10.61
757.163	28.57
757.343	60.04
757.522	-21.78
757.701	44.12
757.881	158.16
758.06	30.42
758.239	25.24
758.418	196.85
758.598	192.22
758.777	120.76
758.956	100.4
759.135	75.96
759.315	90.59
759.494	259.98
759.673	135.76
759.852	24.5
760.031	13.39
760.21	24.5
760.389	-48.07
760.568	53.01
760.748	108.73
760.927	11.17
761.106	84.85
761.285	109.1
761.464	20.43
761.643	157.6
761.822	129.09
762	139.83
762.179	29.87
762.358	82.26
762.537	73.56
762.716	59.49
762.895	21.54
763.074	88.37
763.253	130.76
763.431	6.91
763.61	101.51
763.789	87.44
763.968	2.47
764.147	71.15
764.325	94.66
764.504	73.56
764.683	19.69
764.861	125.39
765.04	92.81
765.219	18.39
765.397	63.93
765.576	220.36
765.755	161.68
765.933	59.67
766.112	166.86
766.29	73.74
766.469	-14.56
766.647	55.41
766.826	97.25
767.004	117.99
767.183	101.88
767.361	153.72
767.54	242.21
767.718	215.73
767.897	49.49
768.075	12.47
768.253	35.98
768.432	140.57
768.61	50.6
768.788	77.26
768.967	119.47
769.145	37.83
769.323	177.23
769.501	53.38
769.68	47.64
769.858	130.76
770.036	26.72
770.214	185.19
770.393	43.01
770.571	113.91
770.749	-23.26
770.927	-47.89
771.105	194.44
771.283	49.31
771.461	76.7
771.639	154.83
771.817	49.31
771.995	33.01
772.173	158.53
772.351	77.26
772.529	151.31
772.707	215.55
772.885	57.27
773.063	268.86
773.241	224.25
773.419	89.29
773.597	134.09
773.775	21.91
773.953	66.52
774.131	75.59
774.308	184.26
774.486	188.15
774.664	138.35
774.842	56.34
775.02	196.67
775.197	189.45
775.375	154.83
775.553	45.79
775.73	42.46
775.908	153.16
776.086	150.2
776.263	106.32
776.441	179.63
776.619	-33.08
776.796	56.15
776.974	128.91
777.151	49.68
777.329	78.93
777.506	219.81
777.684	8.58
777.861	143.72
778.039	139.83
778.216	194.44
778.394	169.27
778.571	170.38
778.749	-9.94
778.926	92.81
779.103	93.55
779.281	78.37
779.458	221.1
779.635	150.94
779.813	144.09
779.99	65.04
780.167	52.27
780.345	259.24
780.522	254.61
780.699	67.45
780.876	49.86
781.054	118.91
781.231	53.38
781.408	144.09
781.585	96.14
781.762	49.49
781.939	57.64
782.116	132.8
782.294	147.98
782.471	15.24
782.648	61.71
782.825	75.96
783.002	114.1
783.179	100.4
783.356	26.72
783.533	86.15
783.71	84.85
783.887	144.46
784.064	178.89
784.24	72.45
784.417	69.48
784.594	86.52
784.771	92.62
784.948	198.52
785.125	21.35
785.302	90.77
785.478	355.87
785.655	15.24
785.832	-16.6
786.009	119.47
786.185	113.17
786.362	186.67
786.539	10.98
786.715	364.76
786.892	142.42
787.069	275.53
787.245	150.2
787.422	89.66
787.599	143.9
787.775	125.39
787.952	65.23
788.128	215.18
788.305	131.5
788.481	83.37
788.658	33.01
788.834	144.83
789.011	44.68
789.187	180.56
789.364	16.54
789.54	233.69
789.717	176.49
789.893	-42.52
790.069	157.79
790.246	38.01
790.422	130.95
790.598	105.95
790.775	126.32
790.951	190.37
791.127	94.85
791.304	77.07
791.48	24.13
791.656	113.17
791.832	125.76
792.008	101.14
792.185	85.59
792.361	99.1
792.537	100.96
792.713	157.23
792.889	109.66
793.065	182.6
793.241	163.71
793.417	133.35
793.593	-8.64
793.769	113.73
793.945	20.61
794.121	100.96
794.297	102.99
794.473	95.4
794.649	225.92
794.825	94.85
795.001	112.06
795.177	-27.89
795.353	155.01
795.529	149.64
795.705	117.06
795.881	97.25
796.056	94.85
796.232	101.7
796.408	175.56
796.584	63.37
796.76	105.95
796.935	72.26
797.111	64.12
797.287	44.68
797.462	164.45
797.638	192.41
797.814	40.79
797.989	80.59
798.165	168.71
798.341	337.92
798.516	63
798.692	176.86
798.867	173.15
799.043	142.61
799.218	217.77
799.394	100.77
799.569	355.87
799.745	168.71
799.92	119.1
800.096	140.39
800.271	174.08
800.447	380.13
800.622	130.02
800.797	-1.23
800.973	15.8
801.148	127.8
801.323	153.9
801.499	35.24
801.674	35.24
801.849	221.1
802.025	145.76
802.2	270.35
802.375	162.6
802.55	188.33
802.725	41.72
802.901	114.28
803.076	104.84
803.251	85.22
803.426	94.29
803.601	190
803.776	49.68
803.951	43.94
804.127	98.55
804.302	87.26
804.477	109.1
804.652	214.44
804.827	23.57
805.002	43.2
805.177	112.8
805.352	281.82
805.526	155.38
805.701	267.38
805.876	150.38
806.051	70.22
806.226	146.87
806.401	164.27
806.576	125.21
806.751	117.06
806.925	71.15
807.1	121.5
807.275	43.2
807.45	84.66
807.625	393.82
807.799	166.49
807.974	90.22
808.149	6.73
808.323	93.55
808.498	155.01
808.673	125.02
808.847	5.43
809.022	129.65
809.197	211.48
809.371	54.67
809.546	173.34
809.72	64.67
809.895	112.43
810.069	-69.18
810.244	245.54
810.418	57.08
810.593	241.84
810.767	172.97
810.942	151.31
811.116	303.67
811.29	142.61
811.465	98.18
811.639	170.19
811.814	286.45
811.988	269.61
812.162	205
812.337	57.64
812.511	164.45
812.685	133.17
812.859	107.81
813.034	165.56
813.208	183.89
813.382	39.49
813.556	140.76
813.73	168.71
813.905	64.3
814.079	83.74
814.253	156.31
814.427	270.53
814.601	29.87
814.775	142.61
814.949	61.71
815.123	164.64
815.297	29.31
815.471	55.23
815.645	64.12
815.819	143.16
815.993	105.03
816.167	105.4
816.341	79.11
816.515	128.35
816.689	-29.19
816.863	93.92
817.037	92.44
817.21	146.68
817.384	90.59
817.558	134.28
817.732	256.83
817.906	126.13
818.079	-35.85
818.253	173.9
818.427	7.47
818.601	140.57
818.774	169.45
818.948	111.69
819.122	257.57
819.295	120.02
819.469	97.44
819.643	89.29
819.816	45.6
819.99	126.69
820.163	77.63
820.337	29.87
820.511	232.95
820.684	134.28
820.858	166.49
821.031	20.61
821.205	106.14
821.378	140.2
821.551	155.57
821.725	139.09
821.898	97.07
822.072	145.02
822.245	202.96
822.418	148.53
822.592	2.47
822.765	56.71
822.938	192.78
823.112	50.42
823.285	184.82
823.458	89.29
823.631	55.41
823.805	146.5
823.978	175.93
824.151	94.85
824.324	190.56
824.497	184.26
824.671	127.24
824.844	108.92
825.017	96.14
825.19	-45.29
825.363	-42.15
825.536	98.36
825.709	84.48
825.882	125.21
826.055	87.81
826.228	-26.04
826.401	83.55
826.574	45.42
826.747	112.62
826.92	166.68
827.093	125.76
827.266	131.5
827.439	73.37
827.612	56.71
827.785	40.6
827.957	109.66
828.13	107.99
828.303	119.28
828.476	98.18
828.649	41.9
828.821	202.03
828.994	113.91
829.167	66.52
829.34	262.39
829.512	153.35
829.685	240.54
829.858	180.37
830.03	178.52
830.203	219.62
830.375	288.86
830.548	159.64
830.721	134.09
830.893	75.04
831.066	141.31
831.238	142.79
831.411	262.94
831.583	116.69
831.756	204.26
831.928	55.97
832.101	102.99
832.273	119.1
832.446	61.52
832.618	169.27
832.79	155.2
832.963	24.5
833.135	82.44
833.307	107.06
833.48	155.38
833.652	92.62
833.824	246.46
833.997	138.91
834.169	147.24
834.341	111.32
834.513	15.43
834.686	83
834.858	134.46
835.03	141.5
835.202	45.6
835.374	13.76
835.546	154.64
835.718	51.71
835.891	140.2
836.063	89.85
836.235	132.8
836.407	65.41
836.579	128.54
836.751	-26.78
836.923	97.07
837.095	151.68
837.267	108.92
837.439	169.27
837.611	50.42
837.782	114.47
837.954	144.09
838.126	132.43
838.298	190.74
838.47	233.69
838.642	12.65
838.814	197.04
838.985	73.56
839.157	38.38
839.329	-9.56
839.501	245.54
839.672	-13.64
839.844	184.26
840.016	35.05
840.188	195.37
840.359	160.75
840.531	50.97
840.702	11.91
840.874	305.15
841.046	24.87
841.217	88.74
841.389	91.14
841.56	116.51
841.732	-28.26
841.903	124.47
842.075	24.68
842.246	109.84
842.418	211.48
842.589	97.62
842.761	141.87
842.932	114.1
843.104	236.47
843.275	102.25
843.446	24.13
843.618	31.53
843.789	154.83
843.96	-58.07
844.132	114.47
844.303	109.84
844.474	68.19
844.646	112.8
844.817	-22.15
844.988	48.56
845.159	250.54
845.331	189.63
845.502	5.06
845.673	82.81
845.844	-32.71
846.015	183.52
846.186	69.85
846.357	107.99
846.528	89.66
846.7	13.21
846.871	47.64
847.042	58.75
847.213	132.8
847.384	430.29
847.555	197.96
847.726	60.23
847.897	182.04
848.067	-47.33
848.238	163.16
848.409	97.07
848.58	158.16
848.751	122.06
848.922	112.06
849.093	103.92
849.264	101.14
849.434	161.68
849.605	31.16
849.776	23.2
849.947	19.87
850.117	88.74
850.288	161.86
850.459	36.53
850.63	144.65
850.8	175.19
850.971	285.34
851.142	22.28
851.312	-88.61
851.483	-9.75
851.653	103.73
851.824	97.81
851.995	39.49
852.165	183.71
852.336	58.75
852.506	188.71
852.677	181.49
852.847	131.5
853.018	114.1
853.188	36.16
853.358	162.23
853.529	198.15
853.699	119.47
853.87	105.58
854.04	-39.93
854.21	59.12
854.381	56.15
854.551	198.7
854.721	50.6
854.892	99.66
855.062	-23.26
855.232	44.31
855.402	135.39
855.573	76.33
855.743	155.75
855.913	45.05
856.083	69.3
856.253	156.49
856.423	-1.6
856.594	78.93
856.764	121.13
856.934	95.96
857.104	58.75
857.274	159.83
857.444	60.6
857.614	38.38
857.784	125.39
857.954	37.64
858.124	13.76
858.294	-11.42
858.464	200.55
858.634	23.02
858.804	144.46
858.974	6.91
859.143	-8.08
859.313	-30.11
859.483	139.09
859.653	-2.34
859.823	63.56
859.993	15.06
860.162	146.5
860.332	157.97
860.502	45.23
860.672	141.87
860.841	134.09
861.011	94.85
861.181	-10.68
861.35	239.8
861.52	83.92
861.69	107.99
861.859	98.92
862.029	71.15
862.198	57.27
862.368	95.77
862.538	71.34
862.707	112.06
862.877	115.02
863.046	159.64
863.216	-10.86
863.385	103.73
863.555	104.29
863.724	209.81
863.893	66.89
864.063	268.31
864.232	245.54
864.402	49.68
864.571	22.65
864.74	83.55
864.91	-43.07
865.079	143.72
865.248	120.76
865.418	143.35
865.587	108.55
865.756	124.84
865.925	128.35
866.094	279.23
866.264	146.31
866.433	56.9
866.602	162.42
866.771	-4.01
866.94	103.92
867.109	32.64
867.278	87.07
867.448	73.93
867.617	15.61
867.786	165.75
867.955	52.27
868.124	1.17
868.293	77.81
868.462	27.83
868.631	159.64
868.8	229.06
868.969	86.7
869.137	146.31
869.306	132.43
869.475	120.95
869.644	19.31
869.813	4.69
869.982	132.8
870.151	34.31
870.319	39.31
870.488	22.83
870.657	111.69
870.826	36.35
870.995	32.09
871.163	67.26
871.332	112.8
871.501	131.13
871.669	39.68
871.838	136.87
872.007	149.27
872.175	93.92
872.344	23.2
872.512	-61.03
872.681	55.04
872.85	129.84
873.018	60.23
873.187	-25.86
873.355	214.25
873.524	30.98
873.692	110.21
873.861	146.31
874.029	94.85
874.197	131.69
874.366	174.64
874.534	103.92
874.703	-1.23
874.871	88.37
875.039	15.24
875.208	23.76
875.376	143.35
875.544	209.81
875.713	94.29
875.881	84.85
876.049	127.24
876.217	124.65
876.386	102.81
876.554	120.21
876.722	180.37
876.89	198.89
877.058	76.52
877.226	109.84
877.395	24.87
877.563	35.24
877.731	45.97
877.899	49.49
878.067	34.5
878.235	29.68
878.403	48.01
878.571	65.41
878.739	77.07
878.907	190.74
879.075	156.68
879.243	50.79
879.411	3.39
879.579	29.5
879.747	89.11
879.914	59.49
880.082	15.98
880.25	25.42
880.418	108.55
880.586	-19.56
880.754	156.12
880.921	107.81
881.089	31.72
881.257	100.4
881.425	50.05
881.592	105.58
881.76	55.78
881.928	212.03
882.095	128.35
882.263	136.68
882.431	28.76
882.598	257.76
882.766	24.13
882.933	66.52
883.101	-12.34
883.269	45.97
883.436	118.91
883.604	77.81
883.771	220.73
883.939	32.83
884.106	-59.18
884.273	146.13
884.441	91.7
884.608	43.57
884.776	145.94
884.943	214.81
885.11	-17.53
885.278	-2.53
885.445	87.81
885.613	129.65
885.78	11.91
885.947	55.23
886.114	161.68
886.282	171.12
886.449	76.89
886.616	115.4
886.783	31.16
886.951	70.59
887.118	-4.01
887.285	213.33
887.452	53.19
887.619	27.46
887.786	-114.53
887.953	51.53
888.12	26.16
888.287	120.76
888.455	161.49
888.622	60.04
888.789	94.29
888.956	57.27
889.123	34.31
889.29	-1.42
889.456	56.9
889.623	17.28
889.79	80.78
889.957	142.05
890.124	80.04
890.291	122.8
890.458	64.67
890.625	186.11
890.791	97.07
890.958	55.41
891.125	170.93
891.292	101.7
891.459	47.45
891.625	111.51
891.792	150.75
891.959	-82.87
892.125	-12.34
892.292	-6.97
892.459	94.48
892.625	147.79
892.792	181.86
892.959	-26.6
893.125	287.19
893.292	-14.93
893.458	156.12
893.625	144.27
893.791	62.63
893.958	22.28
894.124	153.53
894.291	5.25
894.457	82.63
894.624	91.7
894.79	76.89
894.957	80.41
895.123	96.33
895.289	107.81
895.456	239.24
895.622	57.64
895.788	76.33
895.955	63.93
896.121	182.04
896.287	326.62
896.454	81.7
896.62	40.6
896.786	69.67
896.952	98.18
897.119	119.65
897.285	135.02
897.451	33.75
897.617	152.61
897.783	124.28
897.949	27.65
898.115	79.85
898.281	-19.38
898.448	216.29
898.614	46.9
898.78	60.78
898.946	91.14
899.112	222.4
899.278	-37.33
899.444	45.42
899.61	252.2
899.775	85.4
899.941	82.44
900.107	49.86
900.273	100.21
900.439	113.17
900.605	80.78
900.771	146.31
900.937	126.69
901.102	182.41
901.268	147.24
901.434	55.41
901.6	133.72
901.766	135.57
901.931	199.81
902.097	117.8
902.263	168.71
902.428	174.08
902.594	-14.93
902.76	57.27
902.925	39.12
903.091	181.12
903.256	-4.75
903.422	198.89
903.588	21.35
903.753	33.75
903.919	152.05
904.084	91.33
904.25	63.37
904.415	265.16
904.581	50.79
904.746	217.77
904.912	121.87
905.077	98.92
905.242	-27.34
905.408	23.02
905.573	90.22
905.738	83.18
905.904	752.04
906.069	752.04
