Data from FLMT087451__21__14-11-13-290.txt Node

Date: Tue Jun 04 14:11:13 JST 2024
User: power
Spectrometer: FLMT08745
Trigger mode: 0
Integration Time (sec): 2.000000E0
Scans to average: 5
Electric dark correction enabled: true
Nonlinearity correction enabled: false
Boxcar width: 0
XAxis mode: Wavelengths
Number of Pixels in Spectrum: 3648
>>>>>Begin Spectral Data<<<<<
194.923	-1700.59
195.148	-1700.59
195.372	-1700.59
195.597	-1714.84
195.821	-1727.47
196.046	471.83
196.271	235.2
196.495	-572.02
196.72	-488.94
196.944	146.01
197.169	280.41
197.393	-79.62
197.618	-330.91
197.842	434.36
198.067	639.22
198.291	-737.38
198.516	1.83
198.74	305.25
198.964	1048.13
199.189	-401.37
199.413	392.82
199.637	343.13
199.862	398.52
200.086	-139.49
200.31	-237.65
200.535	192.03
200.759	754.07
200.983	-473.87
201.207	-458.39
201.432	973.19
201.656	511.34
201.88	-96.32
202.104	-741.45
202.328	332.95
202.552	376.94
202.777	-165.15
203.001	-655.11
203.225	516.63
203.449	33.6
203.673	50.71
203.897	-440.47
204.121	234.8
204.345	776.88
204.569	-615.19
204.793	-163.52
205.017	655.51
205.241	405.04
205.465	-412.37
205.689	-429.88
205.912	523.96
206.136	497.49
206.36	-526.81
206.584	-356.16
206.808	297.11
207.032	861.19
207.255	-50.3
207.479	-391.6
207.703	393.23
207.927	476.72
208.15	-324.4
208.374	-288.96
208.598	148.86
208.822	332.54
209.045	-498.3
209.269	-361.05
209.492	526
209.716	566.32
209.94	-277.56
210.163	-235.61
210.387	417.66
210.61	838.79
210.834	-49.48
211.057	-135.83
211.281	138.68
211.504	354.94
211.728	-248.24
211.951	-179
212.175	607.45
212.398	409.52
212.622	-596.46
212.845	636.37
213.068	608.27
213.292	746.74
213.515	-235.61
213.738	-321.95
213.962	533.74
214.185	534.55
214.408	-136.23
214.631	23.83
214.855	475.5
215.078	299.15
215.301	-187.55
215.524	-413.18
215.747	466.54
215.971	369.6
216.194	-311.36
216.417	-396.08
216.64	589.13
216.863	980.11
217.086	-319.1
217.309	-654.29
217.532	318.29
217.755	246.61
217.978	-419.29
218.201	85.73
218.424	378.56
218.647	422.14
218.87	-317.88
219.093	-258.42
219.316	864.45
219.539	540.25
219.762	-625.78
219.985	-595.64
220.207	-126.46
220.43	261.68
220.653	-368.38
220.876	-467.35
221.099	731.67
221.321	416.44
221.544	-376.53
221.767	-384.67
221.99	571.61
222.212	714.98
222.435	-180.22
222.658	-153.34
222.88	495.86
223.103	646.55
223.326	-472.24
223.548	-451.87
223.771	635.15
223.993	360.24
224.216	-517.85
224.438	-343.13
224.661	472.65
224.883	588.72
225.106	-280.41
225.328	-475.09
225.551	774.85
225.773	405.44
225.996	-370.42
226.218	-357.79
226.44	371.23
226.663	514.59
226.885	-427.84
227.108	-297.92
227.33	1029.8
227.552	798.47
227.774	-303.63
227.997	-295.48
228.219	941.42
228.441	705.2
228.663	-303.63
228.886	-605.83
229.108	503.6
229.33	482.42
229.552	-558.58
229.774	-565.5
229.996	340.69
230.219	516.22
230.441	-416.44
230.663	-284.08
230.885	356.57
231.107	630.26
231.329	-165.97
231.551	316.66
231.773	446.58
231.995	411.96
232.217	-502.78
232.439	-227.46
232.661	648.59
232.883	497.08
233.105	-434.36
233.326	-447.39
233.548	563.06
233.77	372.86
233.992	-418.88
234.214	-417.66
234.436	301.59
234.657	435.58
234.879	-287.33
235.101	-623.34
235.323	436.8
235.544	630.67
235.766	102.02
235.988	-136.64
236.21	874.22
236.431	804.17
236.653	-518.26
236.874	549.62
237.096	512.56
237.318	266.16
237.539	-54.78
237.761	-473.46
237.982	485.68
238.204	584.65
238.425	-363.09
238.647	-332.13
238.868	415.63
239.09	857.12
239.311	-664.07
239.533	-558.58
239.754	603.79
239.975	424.99
240.197	-556.54
240.418	-617.23
240.64	684.02
240.861	809.06
241.082	-339.47
241.304	-302.81
241.525	525.18
241.746	389.97
241.967	-600.94
242.189	-43.78
242.41	848.16
242.631	1693.26
242.852	-106.91
243.073	-418.48
243.294	331.32
243.516	590.76
243.737	-380.6
243.958	-236.02
244.179	712.53
244.4	525.59
244.621	-517.85
244.842	-256.38
245.063	970.75
245.284	382.23
245.505	-402.19
245.726	-440.88
245.947	889.7
246.168	247.42
246.389	-630.67
246.61	-463.69
246.831	943.46
247.052	562.65
247.272	-281.23
247.493	-293.44
247.714	477.13
247.935	392.82
248.156	431.92
248.376	-237.24
248.597	514.59
248.818	684.02
249.039	-216.06
249.259	-486.49
249.48	400.96
249.701	471.42
249.921	-561.43
250.142	-346.8
250.363	562.25
250.583	462.06
250.804	-411.15
251.025	-494.64
251.245	958.12
251.466	644.11
251.686	-378.16
251.907	-491.79
252.127	362.68
252.348	402.19
252.568	-284.89
252.789	-162.3
253.009	355.76
253.23	708.87
253.45	-238.87
253.67	-334.99
253.891	471.02
254.111	594.83
254.331	-673.03
254.552	-293.04
254.772	643.7
254.992	435.99
255.213	-541.88
255.433	-370.83
255.653	745.52
255.873	807.02
256.093	-272.67
256.314	-561.43
256.534	241.31
256.754	1045.28
256.974	-631.48
257.194	-366.35
257.414	475.09
257.634	282.45
257.855	-346.8
258.075	-495.05
258.295	263.3
258.515	297.52
258.735	-115.46
258.955	-466.13
259.175	140.31
259.395	555.73
259.615	-183.07
259.835	94.28
260.054	600.12
260.274	634.33
260.494	-503.19
260.714	674.65
260.934	428.25
261.154	767.92
261.374	-499.53
261.593	-168.41
261.813	402.59
262.033	301.59
262.253	-345.98
262.472	-334.58
262.692	664.07
262.912	235.61
263.132	-466.13
263.351	-427.44
263.571	378.16
263.791	943.05
264.01	-154.56
264.23	-198.55
264.449	483.64
264.669	435.58
264.888	-270.64
265.108	-409.92
265.328	768.74
265.547	521.93
265.767	-429.07
265.986	-446.58
266.205	572.43
266.425	861.6
266.644	-594.01
266.864	-571.21
267.083	580.17
267.303	496.27
267.522	-25.05
267.741	-398.11
267.961	481.2
268.18	442.51
268.399	-337.02
268.618	-470.61
268.838	664.88
269.057	674.65
269.276	-526.81
269.495	-361.87
269.715	615.6
269.934	312.99
270.153	26.27
270.372	-597.68
270.591	561.84
270.81	599.72
271.029	-188.77
271.249	-129.72
271.468	635.56
271.687	505.23
271.906	-369.2
272.125	-307.29
272.344	423.36
272.563	1446.04
272.782	-347.2
273.001	-520.3
273.22	242.94
273.439	302
273.657	-179.81
273.876	-289.78
274.095	104.47
274.314	615.6
274.533	-390.38
274.752	457.98
274.971	853.45
275.189	670.17
275.408	152.12
275.627	-318.29
275.846	998.03
276.064	597.27
276.283	-624.56
276.502	-372.86
276.72	774.85
276.939	442.1
277.158	-501.97
277.376	-463.69
277.595	756.11
277.814	511.34
278.032	-74.74
278.251	-280.82
278.469	471.83
278.688	429.47
278.906	-338.24
279.125	-265.75
279.343	161.89
279.562	445.77
279.78	-613.16
279.999	-297.92
280.217	546.36
280.435	627
280.654	-442.51
280.872	-378.16
281.091	549.21
281.309	563.88
281.527	-387.52
281.746	-427.03
281.964	126.05
282.182	891.73
282.4	-449.02
282.619	-197.73
282.837	890.92
283.055	383.04
283.273	-500.34
283.491	-252.31
283.71	760.59
283.928	565.91
284.146	-234.8
284.364	-180.22
284.582	497.49
284.8	621.3
285.018	41.34
285.236	-484.86
285.454	505.63
285.672	603.79
285.89	-549.21
286.108	-610.31
286.326	692.17
286.544	277.56
286.762	-457.17
286.98	-407.48
287.198	941.01
287.416	791.54
287.634	-75.55
287.851	-387.93
288.069	320.73
288.287	484.46
288.505	-599.72
288.723	-455.13
288.94	877.07
289.158	551.66
289.376	-151.3
289.594	-463.28
289.811	369.2
290.029	420.51
290.247	-69.03
290.464	38.08
290.682	535.37
290.9	747.96
291.117	-282.04
291.335	-304.44
291.552	451.47
291.77	612.75
291.987	-586.68
292.205	-406.26
292.422	732.08
292.64	601.75
292.857	-437.21
293.075	-258.42
293.292	808.24
293.51	882.77
293.727	-540.66
293.945	-712.12
294.162	1239.96
294.379	982.96
294.597	-484.46
294.814	-543.92
295.031	1419.16
295.249	1503.46
295.466	-504.82
295.683	-525.18
295.9	1100.67
296.118	813.13
296.335	-517.85
296.552	-465.31
296.769	1126.33
296.986	955.68
297.204	-725.16
297.421	-664.47
297.638	717.83
297.855	980.93
298.072	-861.19
298.289	-314.62
298.506	756.52
298.723	655.51
298.94	-881.55
299.157	-603.79
299.374	1222.44
299.591	1054.24
299.808	-525.59
300.025	-796.02
300.242	1199.23
300.459	712.94
300.676	-778.1
300.893	-557.77
301.109	958.12
301.326	1163.8
301.543	-89.8
301.76	-531.7
301.977	743.89
302.193	1254.21
302.41	-262.08
302.627	-818.83
302.844	783.4
303.06	688.1
303.277	-655.92
303.494	-653.88
303.71	919.02
303.927	1204.93
304.144	-564.28
304.36	-298.33
304.577	990.7
304.793	712.12
305.01	-685.65
305.227	-593.2
305.443	814.76
305.66	1072.16
305.876	-686.47
306.093	-833.09
306.309	1218.37
306.526	495.45
306.742	-1.83
306.958	-596.86
307.175	761
307.391	923.5
307.608	-240.9
307.824	-647.77
308.04	828.61
308.257	736.97
308.473	-185.11
308.689	-747.96
308.905	736.56
309.122	574.06
309.338	-679.95
309.554	-387.52
309.77	982.96
309.986	949.57
310.203	-811.09
310.419	-758.96
310.635	880.33
310.851	548.4
311.067	-153.34
311.283	-801.32
311.499	666.1
311.715	648.18
311.931	-308.51
312.147	-451.06
312.363	432.73
312.579	868.11
312.795	-679.54
313.011	-860.37
313.227	953.23
313.443	1235.48
313.659	-511.74
313.875	-565.91
314.091	793.99
314.307	755.3
314.523	-722.31
314.738	-529.66
314.954	1147.1
315.17	892.55
315.386	-477.13
315.602	-717.42
315.817	697.06
316.033	700.31
316.249	-614.38
316.465	-786.66
316.68	813.94
316.896	858.34
317.112	-535.37
317.327	-613.56
317.543	1148.32
317.758	748.37
317.974	-280.41
318.19	-439.66
318.405	753.67
318.621	988.26
318.836	-509.71
319.052	-113.43
319.267	890.51
319.483	740.63
319.698	-592.79
319.914	-627.41
320.129	714.98
320.344	1406.94
320.56	-294.67
320.775	-80.84
320.99	728.01
321.206	824.94
321.421	95.1
321.636	-598.49
321.852	825.75
322.067	762.22
322.282	-587.9
322.498	-707.64
322.713	879.11
322.928	1082.34
323.143	-615.19
323.358	-515.82
323.574	655.92
323.789	1065.23
324.004	-596.86
324.219	-614.79
324.434	1101.89
324.649	825.75
324.864	-466.94
325.079	-411.15
325.294	442.91
325.509	292.63
325.724	-497.9
325.939	-499.53
326.154	919.84
326.369	2428.8
326.584	-671.8
326.799	-732.9
327.014	1138.95
327.229	656.33
327.444	-602.16
327.659	-404.22
327.873	1084.78
328.088	965.86
328.303	-457.17
328.518	-812.72
328.733	930.02
328.947	924.72
329.162	-385.9
329.377	-572.84
329.591	1097.82
329.806	697.06
330.021	-660.4
330.235	-445.77
330.45	1000.07
330.665	420.51
330.879	-580.57
331.094	-315.84
331.309	899.06
331.523	479.16
331.738	-568.76
331.952	-471.02
332.167	851.01
332.381	818.42
332.596	-679.13
332.81	-811.91
333.025	843.27
333.239	1029.39
333.453	-617.23
333.668	-663.25
333.882	1204.93
334.097	670.58
334.311	-603.79
334.525	-747.96
334.74	889.29
334.954	817.2
335.168	-688.91
335.382	-422.55
335.597	848.56
335.811	638.41
336.025	-592.38
336.239	-821.68
336.453	736.15
336.668	661.62
336.882	-531.29
337.096	-723.12
337.31	898.25
337.524	642.48
337.738	-450.65
337.952	-810.69
338.166	928.8
338.38	841.23
338.594	-624.15
338.808	-631.08
339.022	1133.25
339.236	581.39
339.45	-352.09
339.664	1426.9
339.878	1070.12
340.092	582.2
340.306	-677.1
340.52	-505.23
340.734	882.77
340.948	767.92
341.161	-587.9
341.375	-553.29
341.589	1320.19
341.803	792.36
342.017	-295.07
342.23	-498.3
342.444	779.33
342.658	1244.84
342.871	-564.69
343.085	-617.23
343.299	491.38
343.512	869.33
343.726	-575.28
343.94	-420.92
344.153	533.33
344.367	734.52
344.58	-577.32
344.794	-465.72
345.008	540.25
345.221	572.84
345.435	-229.5
345.648	-188.77
345.862	661.21
346.075	569.58
346.288	-503.19
346.502	-191.62
346.715	761
346.929	322.36
347.142	-723.94
347.355	-449.02
347.569	1212.67
347.782	1204.52
347.995	-641.67
348.209	-755.3
348.422	468.98
348.635	683.62
348.848	-595.64
349.062	-697.87
349.275	777.29
349.488	630.26
349.701	-497.9
349.914	-715.79
350.128	633.93
350.341	825.35
350.554	-547.58
350.767	-683.21
350.98	825.35
351.193	746.34
351.406	-376.12
351.619	-119.94
351.832	921.06
352.045	728.01
352.258	-762.22
352.471	-556.54
352.684	667.73
352.897	862.82
353.11	-605.83
353.323	-669.36
353.536	493.01
353.748	941.42
353.961	-723.12
354.174	-703.57
354.387	769.55
354.6	660.81
354.813	-536.18
355.025	-564.69
355.238	991.11
355.451	886.44
355.664	-543.1
355.876	-694.2
356.089	1364.58
356.302	718.23
356.514	181.44
356.727	-633.93
356.94	703.57
357.152	522.33
357.365	-600.12
357.577	-464.09
357.79	737.78
358.002	249.86
358.215	-478.75
358.427	-416.44
358.64	859.56
358.852	589.13
359.065	-710.9
359.277	-335.39
359.49	925.95
359.702	842.45
359.915	-321.14
360.127	-292.63
360.339	623.75
360.552	473.46
360.764	-394.86
360.976	-657.55
361.189	567.13
361.401	1273.76
361.613	-475.5
361.825	-702.35
362.038	986.22
362.25	1083.15
362.462	-567.13
362.674	-717.83
362.886	1093.34
363.099	896.21
363.311	-637.19
363.523	-337.84
363.735	1290.87
363.947	605.42
364.159	-432.73
364.371	-534.96
364.583	746.74
364.795	699.09
365.007	-536.18
365.219	-757.74
365.431	720.68
365.643	867.7
365.855	-633.52
366.067	-831.86
366.279	767.11
366.491	585.46
366.703	-314.21
366.914	-785.43
367.126	805.8
367.338	1131.62
367.55	-394.45
367.762	-295.89
367.974	884.81
368.185	433.55
368.397	-606.23
368.609	-673.84
368.82	663.66
369.032	1035.1
369.244	-578.54
369.456	-329.28
369.667	1084.78
369.879	673.03
370.09	-365.12
370.302	-504.41
370.514	802.13
370.725	708.05
370.937	-767.51
371.148	-673.03
371.36	848.56
371.571	725.97
371.783	-418.88
371.994	-658.77
372.206	837.57
372.417	1081.53
372.629	-486.09
372.84	-515
373.051	761
373.263	1174.38
373.474	-629.04
373.685	-673.43
373.897	660.81
374.108	717.01
374.319	-604.2
374.531	-465.31
374.742	691.76
374.953	788.69
375.164	-642.07
375.375	-650.22
375.587	627.41
375.798	875.85
376.009	-513.37
376.22	-699.91
376.431	602.16
376.642	811.09
376.853	-603.38
377.065	88.99
377.276	818.83
377.487	639.22
377.698	-716.2
377.909	-533.74
378.12	1171.53
378.331	727.6
378.542	-266.56
378.753	-575.28
378.964	1081.93
379.174	831.46
379.385	-614.79
379.596	-612.34
379.807	509.3
380.018	662.84
380.229	-266.16
380.44	-462.87
380.65	667.32
380.861	617.23
381.072	-721.49
381.283	-409.52
381.493	1121.44
381.704	1064.83
381.915	-366.75
382.126	-699.91
382.336	1240.36
382.547	715.79
382.757	-422.14
382.968	-392.82
383.179	634.74
383.389	863.22
383.6	-493.42
383.81	-603.38
384.021	1110.03
384.231	1459.89
384.442	-68.63
384.652	-568.76
384.863	1002.92
385.073	1027.76
385.284	77.18
385.494	-482.42
385.705	792.36
385.915	573.65
386.125	-508.08
386.336	-1.43
386.546	708.46
386.756	1213.08
386.967	-512.56
387.177	-559.4
387.387	1391.46
387.598	719.46
387.808	-581.8
388.018	-459.21
388.228	565.1
388.439	809.87
388.649	-365.53
388.859	-591.98
389.069	678.32
389.279	652.66
389.489	-451.06
389.699	-420.11
389.909	581.8
390.12	519.48
390.33	-80.44
390.54	-392.82
390.75	2241.45
390.96	1218.37
391.17	-543.51
391.38	-625.37
391.59	547.99
391.799	876.26
392.009	-77.99
392.219	-833.49
392.429	989.48
392.639	1139.77
392.849	-516.63
393.059	-409.11
393.269	797.65
393.478	884.4
393.688	-68.63
393.898	-244.98
394.108	827.79
394.317	768.74
394.527	-493.42
394.737	-358.61
394.947	760.18
395.156	662.03
395.366	-622.12
395.576	-75.96
395.785	963.01
395.995	1048.13
396.204	-526
396.414	-394.86
396.624	872.59
396.833	621.71
397.043	-565.1
397.252	-347.61
397.462	927.98
397.671	823.72
397.881	-580.57
398.09	-438.84
398.299	975.23
398.509	897.84
398.718	-181.85
398.928	-569.98
399.137	1448.48
399.346	764.66
399.556	-531.29
399.765	-840.01
399.974	704.39
400.184	644.11
400.393	-306.48
400.602	-317.07
400.811	1077.45
401.021	640.44
401.23	-216.06
401.439	159.86
401.648	647.77
401.857	858.74
402.066	-450.25
402.276	-463.28
402.485	816.39
402.694	668.14
402.903	-524.37
403.112	-334.58
403.321	1006.59
403.53	825.35
403.739	-333.76
403.948	-369.6
404.157	833.09
404.366	792.36
404.575	-616.41
404.784	-328.06
404.993	1173.98
405.202	1041.2
405.411	-535.77
405.619	-690.13
405.828	735.75
406.037	770.37
406.246	-430.7
406.455	-611.93
406.663	1209
406.872	847.34
407.081	-91.84
407.29	-324.8
407.498	627.41
407.707	666.51
407.916	-484.86
408.124	-618.04
408.333	1024.91
408.542	571.61
408.75	-633.11
408.959	-356.16
409.168	725.97
409.376	1126.33
409.585	-206.29
409.793	-543.92
410.002	663.25
410.21	1075.82
410.419	-332.95
410.627	-511.74
410.836	1276.2
411.044	1084.78
411.253	-475.09
411.461	-509.71
411.669	1482.29
411.878	1416.71
412.086	-512.15
412.294	-537.4
412.503	486.9
412.711	1001.29
412.919	-583.83
413.128	-540.66
413.336	906.4
413.544	826.57
413.752	-168.82
413.961	287.74
414.169	782.18
414.377	990.7
414.585	-440.88
414.793	-406.26
415.001	717.83
415.209	885.22
415.418	-490.97
415.626	-255.97
415.834	974.41
416.042	742.67
416.25	-650.63
416.458	-541.88
416.666	774.03
416.874	2316.39
417.082	-253.53
417.29	-587.9
417.498	836.75
417.706	671.8
417.913	-180.22
418.121	-159.86
418.329	991.11
418.537	806.21
418.745	-238.05
418.953	-202.21
419.161	897.44
419.368	677.1
419.576	-289.78
419.784	-403
419.992	1114.51
420.199	1066.86
420.407	-440.88
420.615	312.59
420.822	1100.26
421.03	868.11
421.238	-479.98
421.445	-547.58
421.653	791.95
421.861	1343.4
422.068	29.93
422.276	-271.86
422.483	738.6
422.691	985.41
422.898	-114.65
423.106	-312.59
423.313	824.53
423.521	1149.54
423.728	-446.17
423.936	-345.57
424.143	1189.05
424.35	988.67
424.558	80.03
424.765	-416.44
424.973	777.7
425.18	1160.54
425.387	-71.48
425.594	-166.78
425.802	1580.44
426.009	949.97
426.216	-178.59
426.424	-309.73
426.631	1147.91
426.838	973.6
427.045	-251.09
427.252	-319.1
427.459	1029.8
427.667	999.26
427.874	-86.55
428.081	-293.04
428.288	889.7
428.495	1197.19
428.702	-124.83
428.909	-316.25
429.116	884.4
429.323	1100.67
429.53	-138.27
429.737	-163.11
429.944	969.93
430.151	1142.62
430.358	118.72
430.565	-64.96
430.772	1132.84
430.979	894.99
431.185	-313.4
431.392	-242.94
431.599	1711.58
431.806	1324.67
432.013	-214.84
432.219	-263.71
432.426	969.12
432.633	1146.28
432.84	-334.17
433.046	-156.19
433.253	1233.03
433.46	1177.64
433.666	-170.04
433.873	142.34
434.08	1219.18
434.286	1119.4
434.493	-6.72
434.7	-139.49
434.906	1178.86
435.113	956.9
435.319	340.69
435.526	-464.09
435.732	1149.54
435.939	1041.2
436.145	169.22
436.352	-341.09
436.558	967.49
436.765	1122.66
436.971	-305.66
437.177	-38.08
437.384	767.92
437.59	893.36
437.796	83.7
438.003	-173.3
438.209	1279.05
438.415	1115.33
438.622	-20.16
438.828	-193.66
439.034	1852.5
439.24	1042.02
439.447	-114.65
439.653	-169.22
439.859	1055.46
440.065	1118.59
440.271	-62.11
440.477	70.26
440.683	1128.77
440.89	952.42
441.096	150.49
441.302	25.86
441.508	1109.22
441.714	1057.09
441.92	-190.81
442.126	-286.52
442.332	1461.11
442.538	1276.2
442.744	-97.95
442.95	65.78
443.156	1017.58
443.361	1481.06
443.567	-132.57
443.773	-38.89
443.979	1188.64
444.185	1290.46
444.391	-139.49
444.596	-48.67
444.802	1467.62
445.008	1394.31
445.214	-279.6
445.42	409.52
445.625	1219.18
445.831	987.44
446.037	38.08
446.242	480.79
446.448	1496.54
446.654	1392.68
446.859	-146.42
447.065	49.08
447.27	1234.66
447.476	1323.86
447.682	59.26
447.887	101.62
448.093	1241.99
448.298	1020.84
448.504	440.88
448.709	-48.67
448.915	1199.64
449.12	1094.97
449.325	-196.51
449.531	-59.26
449.736	950.38
449.942	951.6
450.147	222.58
450.352	-121.57
450.558	1260.32
450.763	1251.77
450.968	442.51
451.174	181.85
451.379	1232.62
451.584	1506.32
451.789	208.73
451.995	151.71
452.2	1171.94
452.405	1072.16
452.61	-154.15
452.815	226.24
453.02	1006.59
453.226	965.04
453.431	-185.92
453.636	-154.56
453.841	1337.3
454.046	1007.4
454.251	-97.14
454.456	-231.54
454.661	1718.91
454.866	1143.84
455.071	-45.41
455.276	104.87
455.481	1755.16
455.686	1215.52
455.891	-220.95
456.095	428.66
456.3	852.23
456.505	835.12
456.71	-196.51
456.915	-196.1
457.12	1076.64
457.324	825.35
457.529	170.04
457.734	-172.48
457.939	844.9
458.144	853.45
458.348	-125.24
458.553	-187.96
458.758	907.21
458.962	738.19
459.167	0.61
459.372	320.73
459.576	1203.71
459.781	1175.2
459.985	-166.37
460.19	-195.29
460.394	879.92
460.599	775.25
460.803	-207.51
461.008	-123.2
461.212	732.08
461.417	1139.77
461.621	-270.64
461.826	-92.25
462.03	872.18
462.235	1085.6
462.439	-337.84
462.643	-30.75
462.848	923.91
463.052	865.26
463.256	-342.72
463.461	-194.47
463.665	639.22
463.869	1010.25
464.074	109.76
464.278	-200.18
464.482	982.56
464.686	743.48
464.89	-141.12
465.095	-28.31
465.299	1082.75
465.503	913.73
465.707	-101.62
465.911	-70.66
466.115	1006.99
466.319	564.69
466.523	-27.9
466.727	-389.97
466.931	958.53
467.135	974.82
467.339	-127.27
467.543	-321.55
467.747	965.45
467.951	933.68
468.155	-216.06
468.359	-118.72
468.563	1149.13
468.767	1040.8
468.971	-339.47
469.175	-363.09
469.379	927.57
469.582	1029.8
469.786	-206.29
469.99	-445.36
470.194	889.7
470.397	1036.32
470.601	34.82
470.805	-205.06
471.009	1177.64
471.212	927.17
471.416	-194.88
471.62	-260.45
471.823	821.68
472.027	1118.99
472.23	-388.75
472.434	-282.85
472.638	815.98
472.841	777.29
473.045	-232.35
473.248	-44.6
473.452	870.96
473.655	992.74
473.859	-238.46
474.062	-315.84
474.266	1043.24
474.469	740.23
474.672	-265.34
474.876	-264.93
475.079	573.24
475.283	891.33
475.486	-328.47
475.689	-317.07
475.893	938.16
476.096	733.71
476.299	-360.24
476.502	-419.29
476.706	897.44
476.909	995.59
477.112	-222.17
477.315	-379.79
477.519	1439.52
477.722	1053.83
477.925	-202.62
478.128	-430.7
478.331	799.28
478.534	776.47
478.737	-321.55
478.94	-325.21
479.143	572.02
479.346	1090.89
479.549	176.15
479.752	-440.47
479.955	821.27
480.158	1030.62
480.361	144.79
480.564	-367.98
480.767	840.01
480.97	894.99
481.173	-373.68
481.376	-461.24
481.579	936.13
481.782	895.4
481.984	-163.52
482.187	-33.6
482.39	1123.88
482.593	1166.65
482.796	-237.24
482.998	-369.6
483.201	1293.72
483.404	1176.01
483.606	-547.99
483.809	-162.71
484.012	1068.49
484.214	814.76
484.417	-322.36
484.62	-266.97
484.822	565.1
485.025	844.08
485.227	-34.01
485.43	-253.94
485.632	828.61
485.835	833.09
486.037	-153.34
486.24	-282.45
486.442	1565.37
486.645	867.3
486.847	-341.5
487.05	-130.94
487.252	870.15
487.455	1138.54
487.657	-182.26
487.859	128.09
488.062	936.13
488.264	786.25
488.466	221.76
488.668	-319.1
488.871	1007.81
489.073	990.29
489.275	-120.76
489.477	-179.81
489.68	1040.39
489.882	906.4
490.084	-370.42
490.286	257.2
490.488	831.46
490.69	846.53
490.893	-269.41
491.095	-209.14
491.297	1041.61
491.499	807.83
491.701	-111.8
491.903	-293.04
492.105	831.86
492.307	918.21
492.509	-64.55
492.711	-291.41
492.913	1105.55
493.115	1011.07
493.317	-152.93
493.518	-216.88
493.72	969.93
493.922	1257.06
494.124	-216.06
494.326	-9.57
494.528	752.85
494.73	1080.71
494.931	-0.61
495.133	-366.35
495.335	1253.4
495.537	1178.46
495.738	86.95
495.94	-104.47
496.142	824.13
496.343	857.52
496.545	-290.19
496.747	-198.14
496.948	931.65
497.15	1531.57
497.351	-43.78
497.553	-178.59
497.755	1054.24
497.956	1531.97
498.158	155.38
498.359	-137.46
498.561	790.32
498.762	770.37
498.964	-230.32
499.165	-152.93
499.366	1313.27
499.568	601.35
499.769	-16.09
499.971	-194.07
500.172	953.64
500.373	1160.94
500.575	8.35
500.776	-7.94
500.977	897.03
501.178	835.12
501.38	-18.53
501.581	-232.35
501.782	1585.73
501.983	1044.46
502.185	-297.11
502.386	-41.75
502.587	816.39
502.788	811.5
502.989	-153.34
503.19	238.87
503.391	1334.44
503.593	1050.16
503.794	-165.56
503.995	-132.57
504.196	1270.91
504.397	934.91
504.598	-113.43
504.799	-192.85
505	859.97
505.201	1777.15
505.402	-65.78
505.602	71.07
505.803	653.48
506.004	873.81
506.205	-47.45
506.406	-224.61
506.607	866.48
506.808	1024.1
507.008	-146.42
507.209	-157.82
507.41	950.79
507.611	826.98
507.812	-280.82
508.012	-172.89
508.213	1228.14
508.414	897.03
508.614	-155.38
508.815	-231.13
509.016	1164.61
509.216	1326.3
509.417	-53.56
509.617	-179
509.818	1046.91
510.019	1121.44
510.219	-185.11
510.42	-135.42
510.62	1157.28
510.821	1064.01
511.021	-127.68
511.222	-97.14
511.422	1037.13
511.623	1166.24
511.823	211.99
512.023	-260.45
512.224	1320.6
512.424	861.6
512.624	-279.6
512.825	-95.1
513.025	1000.07
513.225	805.39
513.426	197.73
513.626	-289.78
513.826	1171.53
514.026	877.07
514.227	75.96
514.427	-90.62
514.627	971.56
514.827	1097
515.027	699.09
515.228	7.13
515.428	1023.69
515.628	1032.24
515.828	115.06
516.028	-111.8
516.228	1072.56
516.428	1220.41
516.628	573.24
516.828	-197.33
517.028	1155.65
517.228	922.28
517.428	225.84
517.628	-13.64
517.828	1024.51
518.028	943.05
518.228	-162.3
518.428	-32.38
518.627	1417.53
518.827	898.25
519.027	113.43
519.227	366.35
519.427	1300.64
519.626	1375.17
519.826	160.67
520.026	-111.39
520.226	1118.18
520.425	1280.68
520.625	6.31
520.825	-390.78
521.024	1015.95
521.224	954.86
521.424	162.71
521.623	-198.14
521.823	1290.05
522.023	1115.74
522.222	-76.77
522.422	-9.16
522.621	1118.99
522.821	962.6
523.02	302
523.22	-61.7
523.419	1335.26
523.619	1046.5
523.818	-187.96
524.017	119.13
524.217	1340.55
524.416	1488.8
524.616	509.71
524.815	-133.38
525.014	1253.4
525.214	982.15
525.413	-20.97
525.612	113.02
525.812	805.39
526.011	986.22
526.21	321.55
526.409	592.38
526.608	1304.31
526.808	964.64
527.007	638.81
527.206	317.88
527.405	941.01
527.604	1154.02
527.803	209.95
528.003	-154.56
528.202	1360.51
528.401	1227.74
528.6	-81.25
528.799	158.63
528.998	846.12
529.197	1004.14
529.396	-33.19
529.595	-99.99
529.794	1194.34
529.993	912.5
530.192	258.42
530.39	18.53
530.589	1377.62
530.788	1114.92
530.987	-170.45
531.186	-225.84
531.385	1126.73
531.583	1165.02
531.782	68.63
531.981	-126.46
532.18	839.6
532.379	857.93
532.577	77.99
532.776	-49.89
532.975	1011.07
533.173	941.42
533.372	147.23
533.571	132.57
533.769	859.97
533.968	1342.18
534.166	-137.05
534.365	-36.45
534.564	889.7
534.762	1305.53
534.961	-227.87
535.159	317.47
535.358	1093.34
535.556	1360.1
535.755	-155.78
535.953	-150.9
536.151	1300.64
536.35	996.81
536.548	38.89
536.747	-139.09
536.945	1073.79
537.143	978.48
537.342	-349.24
537.54	202.21
537.738	876.66
537.937	955.27
538.135	-49.48
538.333	45.82
538.531	1380.06
538.73	780.14
538.928	121.17
539.126	40.12
539.324	1292.9
539.522	1161.35
539.72	-87.36
539.919	-58.04
540.117	664.88
540.315	1152.39
540.513	124.83
540.711	-12.01
540.909	1072.97
541.107	1032.65
541.305	-115.06
541.503	168.41
541.701	1239.96
541.899	1006.99
542.097	-99.17
542.295	-165.56
542.493	942.64
542.691	888.07
542.888	-177.78
543.086	-250.27
543.284	726.38
543.482	1213.89
543.68	365.53
543.878	-3.05
544.075	902.32
544.273	753.26
544.471	-189.18
544.669	94.69
544.866	1382.91
545.064	1081.93
545.262	-224.21
545.459	142.34
545.657	980.52
545.855	968.3
546.052	-287.74
546.25	234.39
546.447	1742.94
546.645	996.81
546.842	-41.34
547.04	-184.7
547.238	876.66
547.435	1101.07
547.633	-86.55
547.83	-62.11
548.027	1036.32
548.225	1114.11
548.422	-96.32
548.62	-335.39
548.817	1310.41
549.014	1145.87
549.212	-126.87
549.409	-106.91
549.606	847.75
549.804	1064.83
550.001	-63.74
550.198	-176.55
550.396	1084.38
550.593	874.22
550.79	-227.06
550.987	-299.55
551.184	1107.59
551.382	1668
551.579	-208.73
551.776	-334.99
551.973	885.22
552.17	1084.78
552.367	597.68
552.564	-76.36
552.761	1366.21
552.958	946.72
553.155	-73.92
553.353	-300.37
553.55	1242.4
553.746	1234.25
553.943	-22.6
554.14	-266.16
554.337	908.43
554.534	1156.46
554.731	117.5
554.928	-52.34
555.125	1191.9
555.322	1147.91
555.519	68.22
555.715	-237.24
555.912	1249.32
556.109	1103.11
556.306	-239.28
556.503	-253.94
556.699	1210.63
556.896	899.88
557.093	8.76
557.289	-302.4
557.486	778.1
557.683	1475.36
557.879	-255.57
558.076	-218.91
558.273	951.6
558.469	1057.5
558.666	-101.62
558.862	-75.96
559.059	1014.32
559.255	989.48
559.452	-212.8
559.648	-174.11
559.845	1090.08
560.041	1006.59
560.238	-189.99
560.434	159.45
560.631	774.44
560.827	837.97
561.023	1.83
561.22	-295.07
561.416	1170.31
561.612	1041.61
561.809	-213.62
562.005	-194.07
562.201	613.97
562.398	1245.66
562.594	-100.8
562.79	-262.08
562.986	1631.76
563.182	883.59
563.379	-305.25
563.575	-229.09
563.771	821.27
563.967	1110.44
564.163	-495.45
564.359	-276.74
564.555	1359.29
564.751	1173.57
564.947	-445.36
565.144	-275.93
565.34	993.55
565.536	1125.1
565.732	-229.5
565.928	-181.03
566.123	1199.23
566.319	920.65
566.515	-22.6
566.711	-189.99
566.907	1004.96
567.103	688.91
567.299	-17.72
567.495	-288.56
567.691	748.78
567.886	974.82
568.082	-370.83
568.278	-16.09
568.474	1296.16
568.669	793.58
568.865	-283.67
569.061	-432.32
569.257	1061.57
569.452	971.56
569.648	-411.15
569.844	-63.33
570.039	900.29
570.235	1096.59
570.43	56.41
570.626	-151.3
570.822	1509.17
571.017	851.01
571.213	-96.32
571.408	-118.31
571.604	953.64
571.799	850.6
571.995	-249.46
572.19	-287.74
572.385	685.24
572.581	873.41
572.776	139.9
572.972	205.06
573.167	1000.88
573.362	958.12
573.558	69.44
573.753	-172.48
573.948	853.86
574.144	887.25
574.339	-284.48
574.534	-370.42
574.729	709.68
574.925	863.63
575.12	-112.61
575.315	-405.04
575.51	697.87
575.705	933.68
575.9	-148.05
576.096	-198.14
576.291	971.97
576.486	1222.85
576.681	-208.32
576.876	-212.8
577.071	887.25
577.266	767.92
577.461	-263.3
577.656	-80.84
577.851	886.85
578.046	1149.95
578.241	62.11
578.436	-318.29
578.631	773.62
578.826	1023.28
579.021	-308.51
579.215	-306.48
579.41	1033.47
579.605	923.5
579.8	-223.39
579.995	-153.34
580.189	1018.8
580.384	729.23
580.579	292.63
580.774	-368.79
580.968	679.95
581.163	1002.51
581.358	-156.19
581.552	-233.17
581.747	936.13
581.942	897.44
582.136	-288.96
582.331	-298.74
582.526	1209.41
582.72	930.02
582.915	-362.27
583.109	-341.91
583.304	923.09
583.498	1072.97
583.693	-112.61
583.887	346.8
584.082	774.03
584.276	1501.43
584.471	-192.85
584.665	-255.16
584.859	911.28
585.054	866.48
585.248	103.24
585.442	-269.82
585.637	673.84
585.831	797.65
586.025	1393.5
586.22	-72.7
586.414	946.31
586.608	953.23
586.802	-328.06
586.997	-157.41
587.191	765.07
587.385	1210.22
587.579	-240.5
587.773	-163.52
587.967	807.83
588.162	956.08
588.356	-236.02
588.55	-177.78
588.744	1044.87
588.938	1126.33
589.132	-464.5
589.326	-119.94
589.52	1028.17
589.714	985.81
589.908	-458.8
590.102	-388.75
590.296	1098.22
590.49	1165.42
590.684	-332.54
590.877	-317.88
591.071	1179.27
591.265	1079.49
591.459	4.28
591.653	-535.37
591.847	873.41
592.04	724.34
592.234	-241.72
592.428	-529.26
592.622	873.41
592.815	1026.54
593.009	-495.05
593.203	54.37
593.397	1142.21
593.59	1242.4
593.784	-2.65
593.977	-331.73
594.171	1002.11
594.365	1527.09
594.558	-293.04
594.752	-356.57
594.945	804.98
595.139	1120.62
595.332	-341.09
595.526	-491.38
595.719	842.86
595.913	925.54
596.106	-256.38
596.3	-71.48
596.493	1047.31
596.687	1130.81
596.88	-381.82
597.073	-416.03
597.267	1014.32
597.46	1241.18
597.653	-181.44
597.847	-433.95
598.04	1086.01
598.233	1368.25
598.426	-275.12
598.62	-306.07
598.813	845.3
599.006	1436.26
599.199	-143.57
599.392	-377.34
599.586	1038.76
599.779	1022.88
599.972	-437.21
600.165	-317.47
600.358	1035.91
600.551	1144.25
600.744	-334.17
600.937	-263.71
601.13	1388.2
601.323	919.43
601.516	-350.05
601.709	140.71
601.902	1043.65
602.095	967.08
602.288	-300.77
602.481	-191.62
602.674	820.46
602.867	970.34
603.06	-368.79
603.252	-374.49
603.445	1070.94
603.638	921.47
603.831	-312.59
604.024	-582.2
604.216	1377.21
604.409	954.86
604.602	-383.45
604.795	472.24
604.987	1014.73
605.18	1192.3
605.373	-53.96
605.565	-373.68
605.758	1267.65
605.951	1020.43
606.143	-197.33
606.336	-276.74
606.528	1184.57
606.721	1055.46
606.913	-306.07
607.106	-90.62
607.298	1267.24
607.491	1285.57
607.683	-326.84
607.876	-357.39
608.068	910.06
608.261	1224.89
608.453	-263.3
608.646	-205.88
608.838	1363.77
609.03	1154.43
609.223	-264.12
609.415	-448.21
609.607	897.84
609.8	1093.74
609.992	-172.89
610.184	499.53
610.376	1483.92
610.569	1686.33
610.761	-244.57
610.953	-459.21
611.145	1310.01
611.337	907.21
611.529	-253.94
611.722	-265.34
611.914	879.92
612.106	897.44
612.298	-379.38
612.49	-247.42
612.682	1856.17
612.874	1549.49
613.066	-324.4
613.258	-279.6
613.45	1078.27
613.642	1447.26
613.834	-164.34
614.026	-302.81
614.218	1191.08
614.41	1165.83
614.602	-221.36
614.793	108.13
614.985	1419.57
615.177	910.47
615.369	-192.85
615.561	-135.83
615.753	1515.28
615.944	897.03
616.136	-306.48
616.328	-529.66
616.52	1025.73
616.711	919.02
616.903	35.23
617.095	-209.95
617.286	793.17
617.478	1282.31
617.67	-439.25
617.861	-399.74
618.053	1001.7
618.244	798.06
618.436	-432.73
618.627	-572.43
618.819	983.37
619.01	1273.76
619.202	-488.12
619.393	-111.8
619.585	1404.09
619.776	1182.53
619.968	-329.28
620.159	9.98
620.351	1052.2
620.542	798.06
620.733	-385.9
620.925	-522.33
621.116	1132.03
621.307	1010.25
621.499	-269.01
621.69	-217.28
621.881	851.82
622.072	1135.29
622.264	-357.79
622.455	-367.98
622.646	1180.9
622.837	923.5
623.028	-452.28
623.22	-280.82
623.411	1534.42
623.602	755.7
623.793	-185.51
623.984	-253.12
624.175	880.74
624.366	1008.22
624.557	-183.07
624.748	-453.5
624.939	1235.07
625.13	1130.81
625.321	-526
625.512	-509.71
625.703	960.56
625.894	1334.85
626.085	-528.85
626.276	-249.05
626.467	710.09
626.658	825.75
626.848	-433.14
627.039	-148.86
627.23	936.53
627.421	944.68
627.612	-323.99
627.802	1002.92
627.993	1142.21
628.184	2208.05
628.375	-260.05
628.565	-244.57
628.756	669.77
628.947	1023.28
629.137	-451.47
629.328	-329.69
629.519	658.36
629.709	965.45
629.9	-644.92
630.09	-440.88
630.281	912.1
630.471	809.87
630.662	-424.18
630.852	-369.6
631.043	738.19
631.233	1776.34
631.424	-399.74
631.614	-483.23
631.805	980.93
631.995	959.34
632.185	-274.71
632.376	-365.94
632.566	1087.23
632.756	1253.4
632.947	-193.25
633.137	-602.16
633.327	1689.59
633.518	875.85
633.708	-393.23
633.898	-280.41
634.088	1258.69
634.279	868.11
634.469	-340.69
634.659	-409.52
634.849	779.33
635.039	1131.21
635.229	-337.02
635.42	-374.08
635.61	870.15
635.8	615.6
635.99	-348.02
636.18	-288.56
636.37	933.68
636.56	913.73
636.75	-65.78
636.94	-346.8
637.13	868.52
637.32	812.31
637.51	-450.65
637.7	-396.08
637.89	880.33
638.079	1630.53
638.269	-481.2
638.459	-339.06
638.649	648.59
638.839	2394.18
639.029	-390.78
639.218	-420.11
639.408	901.92
639.598	1173.16
639.788	-405.04
639.977	-560.62
640.167	1310.01
640.357	895.81
640.546	-588.31
640.736	-381.01
640.926	1085.6
641.115	1331.19
641.305	-372.46
641.495	-376.12
641.684	907.21
641.874	1125.51
642.063	-488.94
642.253	50.71
642.442	1430.97
642.632	1216.33
642.821	-459.61
643.011	-397.3
643.2	890.1
643.39	961.38
643.579	-321.55
643.768	-467.35
643.958	960.97
644.147	1154.83
644.336	-499.93
644.526	1218.78
644.715	925.54
644.904	928.8
645.094	17.31
645.283	-337.43
645.472	1050.57
645.661	1066.05
645.851	-323.58
646.04	-340.28
646.229	654.7
646.418	921.87
646.607	-220.54
646.796	-402.59
646.986	958.53
647.175	776.07
647.364	-127.27
647.553	-268.19
647.742	927.98
647.931	827.38
648.12	-191.62
648.309	-526.41
648.498	1020.84
648.687	1163.8
648.876	-216.88
649.065	-319.92
649.254	968.71
649.443	619.67
649.632	62.52
649.82	-88.99
650.009	906.8
650.198	499.93
650.387	-280
650.576	-401.37
650.765	756.92
650.953	1161.76
651.142	-279.19
651.331	-351.28
651.52	946.72
651.708	1163.39
651.897	-176.96
652.086	-190.4
652.274	841.64
652.463	1001.7
652.652	-345.57
652.84	-503.19
653.029	996.4
653.217	903.54
653.406	-207.92
653.594	-172.48
653.783	1095.37
653.972	1000.88
654.16	97.54
654.349	-339.47
654.537	990.29
654.725	1128.36
654.914	-238.87
655.102	-587.09
655.291	953.23
655.479	1043.24
655.667	-323.17
655.856	-335.39
656.044	704.79
656.232	1294.53
656.421	-294.67
656.609	-341.91
656.797	1041.61
656.986	829.42
657.174	320.73
657.362	-498.71
657.55	891.73
657.738	1163.39
657.927	-247.01
658.115	-27.49
658.303	858.34
658.491	1082.34
658.679	-361.46
658.867	-500.34
659.055	759.78
659.243	1366.62
659.431	-474.68
659.619	-437.21
659.807	1076.23
659.995	866.89
660.183	-333.36
660.371	-414.4
660.559	1108
660.747	838.38
660.935	-238.05
661.123	-455.13
661.311	1072.56
661.499	800.91
661.687	-158.23
661.875	-444.14
662.062	897.84
662.25	1448.07
662.438	-220.13
662.626	-338.65
662.813	993.15
663.001	671.4
663.189	-298.74
663.377	22.6
663.564	776.88
663.752	821.68
663.94	-170.45
664.127	-258.82
664.315	1229.77
664.502	700.72
664.69	-71.48
664.878	-236.42
665.065	1071.75
665.253	976.85
665.44	148.86
665.628	-416.44
665.815	930.83
666.003	1371.91
666.19	-256.38
666.378	-230.32
666.565	753.67
666.752	1207.37
666.94	-56.41
667.127	-294.26
667.315	964.64
667.502	807.83
667.689	-641.26
667.877	-550.84
668.064	969.52
668.251	776.88
668.438	-405.44
668.626	-444.95
668.813	745.52
669	927.17
669.187	-381.42
669.374	-289.78
669.562	710.5
669.749	1135.69
669.936	-371.64
670.123	-381.42
670.31	833.9
670.497	775.25
670.684	-266.16
670.871	-310.14
671.058	858.34
671.245	741.04
671.432	-6.31
671.619	-88.58
671.806	843.27
671.993	884.4
672.18	-173.7
672.367	-169.22
672.554	771.18
672.741	886.85
672.928	-364.31
673.115	-81.25
673.302	922.28
673.488	971.97
673.675	-275.12
673.862	-277.97
674.049	818.42
674.235	807.83
674.422	-309.73
674.609	-204.25
674.796	763.03
674.982	694.61
675.169	-314.21
675.356	-309.73
675.542	809.87
675.729	1329.96
675.916	-442.51
676.102	-439.25
676.289	1082.34
676.475	824.53
676.662	-477.94
676.848	-284.08
677.035	1048.94
677.221	709.27
677.408	-214.43
677.594	-160.67
677.781	877.48
677.967	880.33
678.154	-486.49
678.34	-209.54
678.526	932.87
678.713	1426.08
678.899	-455.95
679.085	-271.86
679.272	898.66
679.458	1028.17
679.644	-3.46
679.831	-549.21
680.017	1368.66
680.203	894.18
680.389	-81.25
680.576	-216.88
680.762	784.21
680.948	1158.09
681.134	-295.89
681.32	-541.07
681.506	933.28
681.692	857.12
681.879	-243.76
682.065	-108.13
682.251	1081.12
682.437	684.02
682.623	-290.19
682.809	-141.53
682.995	420.11
683.181	1056.68
683.367	99.99
683.553	-281.63
683.739	768.74
683.924	987.85
684.11	-372.86
684.296	-36.45
684.482	1066.05
684.668	739.41
684.854	-369.6
685.04	-207.1
685.225	692.58
685.411	1369.47
685.597	-437.21
685.783	-242.13
685.968	1121.85
686.154	912.91
686.34	-543.92
686.526	-341.91
686.711	1028.58
686.897	1011.07
687.083	-415.22
687.268	-97.14
687.454	900.69
687.639	780.95
687.825	-255.97
688.01	198.14
688.196	768.33
688.382	1026.14
688.567	-103.24
688.752	-59.67
688.938	850.6
689.123	1371.1
689.309	-217.69
689.494	-367.98
689.68	1117.37
689.865	1106.78
690.05	-224.61
690.236	170.04
690.421	696.24
690.606	513.37
690.792	-135.01
690.977	-297.92
691.162	710.5
691.348	756.11
691.533	-449.02
691.718	-646.15
691.903	1099.85
692.089	771.18
692.274	-355.35
692.459	-420.11
692.644	1288.01
692.829	1068.49
693.014	-350.46
693.199	-306.88
693.384	652.66
693.569	1158.5
693.755	-308.11
693.94	-213.21
694.125	857.12
694.31	685.24
694.495	-398.93
694.68	-543.92
694.864	1162.98
695.049	854.26
695.234	-367.16
695.419	80.84
695.604	797.25
695.789	700.31
695.974	-77.99
696.159	-300.37
696.344	721.9
696.528	824.53
696.713	-186.74
696.898	9.16
697.083	1151.58
697.267	670.58
697.452	-521.52
697.637	-343.95
697.822	815.98
698.006	1011.07
698.191	-289.78
698.375	-198.14
698.56	695.83
698.745	877.48
698.929	-187.55
699.114	-427.84
699.298	1125.92
699.483	927.57
699.668	-479.57
699.852	-492.19
700.037	976.85
700.221	555.32
700.405	-60.48
700.59	37.67
700.774	866.48
700.959	686.06
701.143	-174.52
701.328	-233.98
701.512	851.82
701.696	959.75
701.881	-154.15
702.065	-431.1
702.249	607.45
702.433	942.64
702.618	-323.17
702.802	-297.92
702.986	771.59
703.17	4603.66
703.355	-343.54
703.539	-389.15
703.723	1070.94
703.907	846.93
704.091	-183.48
704.275	-189.99
704.46	945.09
704.644	713.75
704.828	-338.65
705.012	-385.49
705.196	909.65
705.38	571.21
705.564	561.84
705.748	-400.96
705.932	990.7
706.116	983.37
706.3	-417.26
706.484	-497.9
706.668	958.53
706.851	719.05
707.035	-182.26
707.219	6.31
707.403	855.49
707.587	1060.75
707.771	-118.72
707.954	-339.06
708.138	706.83
708.322	926.35
708.506	-326.03
708.689	-155.78
708.873	662.03
709.057	1059.53
709.241	13.64
709.424	-342.72
709.608	946.72
709.792	656.73
709.975	-244.98
710.159	-233.98
710.342	1592.66
710.526	1028.58
710.709	-37.67
710.893	-464.09
711.077	952.83
711.26	810.69
711.443	-355.35
711.627	-226.24
711.81	1521.38
711.994	688.91
712.177	-84.92
712.361	-382.64
712.544	684.43
712.727	777.29
712.911	153.75
713.094	-396.48
713.277	822.09
713.461	1432.6
713.644	-426.22
713.827	-56.41
714.011	571.21
714.194	1347.88
714.377	-19.35
714.56	-67.81
714.743	928.8
714.927	954.86
715.11	-323.17
715.293	-380.6
715.476	1466.81
715.659	765.48
715.842	-258.42
716.025	-416.03
716.208	780.14
716.391	1263.99
716.575	-372.46
716.758	11.2
716.941	946.31
717.124	783.81
717.306	-83.7
717.489	-514.59
717.672	934.09
717.855	662.03
718.038	-247.83
718.221	-109.76
718.404	737.78
718.587	796.43
718.77	-245.38
718.952	-140.71
719.135	1181.72
719.318	923.5
719.501	-177.78
719.684	-180.22
719.866	922.28
720.049	1242.81
720.232	34.41
720.414	-202.62
720.597	1086.41
720.78	788.69
720.962	-297.11
721.145	99.99
721.328	1074.19
721.51	914.54
721.693	-309.73
721.875	-297.52
722.058	510.52
722.24	813.54
722.423	-28.31
722.605	-272.67
722.788	583.83
722.97	766.29
723.153	-260.45
723.335	-521.11
723.518	986.22
723.7	1028.17
723.882	-85.73
724.065	-242.53
724.247	797.25
724.429	677.91
724.612	-107.32
724.794	-429.07
724.976	875.85
725.159	901.1
725.341	-210.36
725.523	-299.15
725.705	875.04
725.888	1118.59
726.07	3.46
726.252	-388.34
726.434	867.3
726.616	818.42
726.798	-193.66
726.98	206.69
727.162	994.77
727.345	1004.96
727.527	-364.72
727.709	-477.94
727.891	903.95
728.073	813.54
728.255	-49.89
728.437	-187.55
728.619	394.45
728.801	833.09
728.982	-343.54
729.164	-456.76
729.346	881.14
729.528	1032.65
729.71	-125.24
729.892	-448.21
730.074	631.08
730.255	844.9
730.437	-221.76
730.619	-295.07
730.801	942.64
730.983	829.42
731.164	-275.52
731.346	-215.25
731.528	744.3
731.709	915.76
731.891	-576.5
732.073	-488.12
732.254	889.29
732.436	910.88
732.617	-330.91
732.799	4.28
732.981	1171.13
733.162	727.6
733.344	-453.5
733.525	-440.88
733.707	1165.83
733.888	745.52
734.07	-378.56
734.251	-300.37
734.433	858.74
734.614	963.01
734.795	264.12
734.977	-361.87
735.158	1050.16
735.34	883.59
735.521	-125.65
735.702	-165.56
735.883	817.61
736.065	914.95
736.246	-283.67
736.427	-284.08
736.609	1143.02
736.79	543.1
736.971	-271.45
737.152	-255.97
737.333	688.5
737.514	732.49
737.696	-124.42
737.877	-519.48
738.058	978.89
738.239	807.43
738.42	-323.99
738.601	-539.85
738.782	657.55
738.963	1287.61
739.144	-112.2
739.325	-102.02
739.506	878.29
739.687	731.27
739.868	81.66
740.049	-254.34
740.23	1104.74
740.411	981.33
740.592	-297.92
740.773	-436.4
740.953	735.34
741.134	1256.65
741.315	-155.78
741.496	-278.78
741.677	716.6
741.857	861.19
742.038	-222.58
742.219	1.83
742.4	1143.02
742.58	876.26
742.761	-288.15
742.942	-217.69
743.122	884.81
743.303	675.88
743.484	-261.68
743.664	-330.1
743.845	1210.22
744.025	676.69
744.206	25.86
744.386	-247.83
744.567	490.97
744.748	916.58
744.928	-86.14
745.108	97.54
745.289	1152.39
745.469	843.27
745.65	-157.01
745.83	-275.52
746.011	971.97
746.191	1010.66
746.371	-346.8
746.552	-13.64
746.732	1034.69
746.912	894.18
747.093	-260.86
747.273	-321.14
747.453	897.84
747.633	1196.38
747.814	-228.69
747.994	-99.17
748.174	1425.67
748.354	881.55
748.534	-218.91
748.715	-505.23
748.895	1121.44
749.075	626.6
749.255	108.95
749.435	-249.86
749.615	927.57
749.795	1238.33
749.975	-275.12
750.155	-63.74
750.335	984.59
750.515	1198.41
750.695	-210.36
750.875	208.32
751.055	927.57
751.235	1075.82
751.415	-22.2
751.595	-32.38
751.775	1839.06
751.954	788.69
752.134	-131.35
752.314	-111.39
752.494	1448.48
752.674	1189.05
752.854	66.59
753.033	-263.71
753.213	1182.12
753.393	657.96
753.572	-211.17
753.752	-183.48
753.932	771.59
754.111	835.94
754.291	-18.94
754.471	-28.31
754.65	770.77
754.83	919.84
755.01	-205.47
755.189	229.09
755.369	829.42
755.548	912.91
755.728	-230.32
755.907	173.3
756.087	909.65
756.266	1057.09
756.446	-145.6
756.625	-157.82
756.804	1742.94
756.984	873.41
757.163	151.3
757.343	-407.89
757.522	723.12
757.701	1189.05
757.881	-286.11
758.06	-325.21
758.239	1048.54
758.418	959.75
758.598	-189.59
758.777	64.15
758.956	866.48
759.135	857.93
759.315	40.93
759.494	105.28
759.673	868.52
759.852	964.23
760.031	-302
760.21	-230.72
760.389	607.45
760.568	763.85
760.748	540.25
760.927	-295.48
761.106	923.5
761.285	926.76
761.464	-321.95
761.643	137.05
761.822	1189.05
762	875.04
762.179	-244.57
762.358	-204.66
762.537	1166.24
762.716	697.87
762.895	86.14
763.074	-262.9
763.253	777.7
763.431	772.81
763.61	158.23
763.789	-255.97
763.968	845.71
764.147	1015.55
764.325	-262.08
764.504	-212.8
764.683	1169.5
764.861	936.53
765.04	-246.61
765.219	-212.8
765.397	632.71
765.576	1084.78
765.755	41.75
765.933	-301.59
766.112	1353.59
766.29	901.92
766.469	-241.31
766.647	-126.87
766.826	1483.51
767.004	1277.02
767.183	343.95
767.361	-99.99
767.54	1161.76
767.718	1200.04
767.897	-240.5
768.075	-128.09
768.253	812.72
768.432	960.16
768.61	86.55
768.788	-234.8
768.967	1135.29
769.145	913.32
769.323	30.34
769.501	-160.67
769.68	963.41
769.858	1377.62
770.036	-189.59
770.214	352.91
770.393	1151.17
770.571	1128.77
770.749	-161.08
770.927	-258.01
771.105	950.79
771.283	813.13
771.461	-114.24
771.639	-203.44
771.817	991.92
771.995	860.78
772.173	-318.69
772.351	78.4
772.529	1042.43
772.707	1499.8
772.885	14.87
773.063	-94.28
773.241	1177.64
773.419	869.33
773.597	-166.37
773.775	-296.29
773.953	938.98
774.131	877.07
774.308	63.74
774.486	-345.57
774.664	1164.2
774.842	1023.28
775.02	-127.27
775.197	177.78
775.375	987.85
775.553	843.27
775.73	-172.89
775.908	-56
776.086	1330.78
776.263	1211.85
776.441	188.37
776.619	-213.62
776.796	827.79
776.974	934.91
777.151	-130.53
777.329	-199.36
777.506	1003.33
777.684	1004.96
777.861	-111.8
778.039	-193.66
778.216	1251.36
778.394	1125.1
778.571	7.13
778.749	165.56
778.926	1271.72
779.103	1077.04
779.281	-9.16
779.458	60.07
779.635	1335.67
779.813	1148.32
779.99	-45.82
780.167	-11.2
780.345	1106.37
780.522	1743.35
780.699	-326.03
780.876	-284.48
781.054	1137.32
781.231	995.59
781.408	342.32
781.585	-168.41
781.762	774.44
781.939	942.24
782.116	-138.68
782.294	124.42
782.471	788.29
782.648	1156.87
782.825	-23.42
783.002	114.65
783.179	1226.52
783.356	943.87
783.533	-110.98
783.71	167.19
783.887	821.27
784.064	1392.68
784.24	-17.31
784.417	-19.75
784.594	1110.85
784.771	1118.18
784.948	352.09
785.125	-124.02
785.302	1316.93
785.478	1624.43
785.655	42.15
785.832	-36.86
786.009	1264.8
786.185	1272.54
786.362	138.68
786.539	-102.02
786.715	1469.25
786.892	790.32
787.069	59.26
787.245	-24.64
787.422	701.54
787.599	1147.5
787.775	-30.34
787.952	-25.86
788.128	1379.65
788.305	813.54
788.481	19.75
788.658	29.53
788.834	1378.84
789.011	767.51
789.187	-170.85
789.364	-192.03
789.54	926.35
789.717	1421.6
789.893	-115.87
790.069	30.75
790.246	1028.58
790.422	998.03
790.598	-141.12
790.775	-102.43
790.951	1218.78
791.127	933.68
791.304	-27.49
791.48	194.88
791.656	1362.95
791.832	1107.18
792.008	12.42
792.185	38.49
792.361	1437.89
792.537	1283.53
792.713	80.84
792.889	125.65
793.065	1415.9
793.241	996
793.417	492.19
793.593	-64.96
793.769	1064.42
793.945	824.94
794.121	-33.6
794.297	35.64
794.473	1175.61
794.649	1002.51
794.825	154.15
795.001	-146.01
795.177	930.43
795.353	1211.45
795.529	166.37
795.705	27.9
795.881	1071.34
796.056	1101.48
796.232	-1.43
796.408	16.9
796.584	1310.01
796.76	1178.86
796.935	128.5
797.111	-197.33
797.287	954.05
797.462	1104.74
797.638	79.22
797.814	67.4
797.989	1029.39
798.165	1055.87
798.341	811.09
798.516	567.95
798.692	846.12
798.867	1056.27
799.043	153.75
799.218	518.26
799.394	1056.27
799.569	1400.42
799.745	225.02
799.92	-41.34
800.096	1469.66
800.271	1070.94
800.447	460.43
800.622	45.82
800.797	1036.32
800.973	1007.4
801.148	268.19
801.323	524.37
801.499	1086.41
801.674	995.18
801.849	332.13
802.025	325.21
802.2	1158.5
802.375	1882.23
802.55	633.52
802.725	-4.68
802.901	1180.9
803.076	1254.21
803.251	200.58
803.426	-16.49
803.601	1154.43
803.776	951.2
803.951	-51.93
804.127	100.8
804.302	1261.13
804.477	1053.42
804.652	690.54
804.827	93.47
805.002	1147.91
805.177	1355.22
805.352	265.75
805.526	283.26
805.701	1219.59
805.876	1018.8
806.051	578.13
806.226	181.03
806.401	1613.43
806.576	1118.59
806.751	81.66
806.925	48.26
807.1	1034.69
807.275	1074.6
807.45	181.44
807.625	1176.83
807.799	1162.17
807.974	1338.11
808.149	-38.49
808.323	280.41
808.498	1307.56
808.673	1452.96
808.847	-137.46
809.022	462.87
809.197	1243.62
809.371	1105.15
809.546	516.22
809.72	-23.01
809.895	923.09
810.069	610.31
810.244	233.98
810.418	-106.1
810.593	1762.09
810.767	1641.12
810.942	49.08
811.116	222.58
811.29	1248.51
811.465	1186.6
811.639	222.17
811.814	548.4
811.988	1055.05
812.162	1288.42
812.337	639.22
812.511	488.94
812.685	1477.81
812.859	1156.87
813.034	62.92
813.208	509.71
813.382	1053.83
813.556	1201.67
813.73	87.77
813.905	228.69
814.079	1490.43
814.253	1147.5
814.427	123.2
814.601	168.41
814.775	1469.25
814.949	953.23
815.123	545.14
815.297	504.82
815.471	1043.24
815.645	1178.46
815.819	200.18
815.993	261.68
816.167	1485.54
816.341	1490.84
816.515	302
816.689	-51.52
816.863	1446.85
817.037	1333.22
817.21	178.18
817.384	128.9
817.558	1117.77
817.732	1582.07
817.906	148.05
818.079	249.46
818.253	1155.65
818.427	847.34
818.601	132.16
818.774	343.13
818.948	1020.43
819.122	1493.28
819.295	402.19
819.469	-33.6
819.643	989.07
819.816	953.64
819.99	338.24
820.163	58.44
820.337	1132.03
820.511	1124.29
820.684	-13.64
820.858	96.32
821.031	952.42
821.205	1046.09
821.378	96.73
821.551	-51.52
821.725	1843.95
821.898	1236.7
822.072	215.65
822.245	682.39
822.418	1379.24
822.592	915.36
822.765	-18.12
822.938	423.77
823.112	954.45
823.285	1196.78
823.458	-181.44
823.631	274.71
823.805	1250.14
823.978	1035.1
824.151	133.79
824.324	159.86
824.497	1431.78
824.671	908.02
824.844	222.58
825.017	-93.47
825.19	723.94
825.363	601.75
825.536	237.65
825.709	490.97
825.882	951.6
826.055	1057.5
826.228	-169.22
826.401	-61.7
826.574	1393.09
826.747	936.94
826.92	139.49
827.093	-112.61
827.266	1210.63
827.439	1194.75
827.612	-117.5
827.785	-8.35
827.957	1466.4
828.13	967.49
828.303	-83.7
828.476	12.83
828.649	1033.87
828.821	1168.68
828.994	391.19
829.167	195.29
829.34	1303.9
829.512	2003.19
829.685	344.35
829.858	126.87
830.03	1319.38
830.203	1469.66
830.375	-152.12
830.548	-82.88
830.721	1174.79
830.893	675.06
831.066	-64.15
831.238	76.36
831.411	1551.12
831.583	1079.08
831.756	170.04
831.928	-111.39
832.101	914.54
832.273	1274.57
832.446	-18.12
832.618	-24.64
832.79	1033.47
832.963	807.02
833.135	130.53
833.307	127.27
833.48	1063.2
833.652	1037.95
833.824	459.21
833.997	12.01
834.169	949.57
834.341	960.16
834.513	41.75
834.686	-54.78
834.858	1094.97
835.03	1198.82
835.202	-205.47
835.374	26.68
835.546	980.93
835.718	1014.32
835.891	-21.79
836.063	-249.05
836.235	842.05
836.407	849.78
836.579	414.81
836.751	-277.56
836.923	788.29
837.095	1224.07
837.267	6.31
837.439	-19.35
837.611	751.63
837.782	838.79
837.954	51.93
838.126	-148.05
838.298	1289.24
838.47	1007.81
838.642	-275.52
838.814	-83.29
838.985	973.6
839.157	528.44
839.329	-172.07
839.501	293.85
839.672	731.27
839.844	1435.45
840.016	236.83
840.188	110.98
840.359	1010.25
840.531	956.08
840.702	-260.05
840.874	804.58
841.046	549.62
841.217	1062.79
841.389	-240.9
841.56	272.26
841.732	723.12
841.903	886.85
842.075	40.93
842.246	-49.89
842.418	1020.43
842.589	679.54
842.761	-61.7
842.932	307.29
843.104	1761.27
843.275	1281.09
843.446	-10.39
843.618	-273.08
843.789	969.52
843.96	514.59
844.132	-66.59
844.303	342.32
844.474	765.48
844.646	945.49
844.817	-157.82
844.988	131.35
845.159	1229.77
845.331	1085.6
845.502	-87.77
845.673	-146.82
845.844	646.15
846.015	734.12
846.186	-11.2
846.357	-6.31
846.528	1014.73
846.7	790.73
846.871	-47.86
847.042	-120.76
847.213	820.46
847.384	1842.32
847.555	-269.01
847.726	-240.5
847.897	1014.73
848.067	682.8
848.238	-4.68
848.409	-113.43
848.58	1014.32
848.751	1245.25
848.922	36.86
849.093	-25.45
849.264	1327.93
849.434	822.09
849.605	350.05
849.776	-249.05
849.947	779.33
850.117	817.2
850.288	279.19
850.459	-135.42
850.63	1178.86
850.8	1338.52
850.971	-41.75
851.142	-295.89
851.312	382.23
851.483	723.12
851.653	-229.5
851.824	-258.42
851.995	710.09
852.165	1551.12
852.336	-213.21
852.506	-435.99
852.677	800.5
852.847	628.63
853.018	-152.53
853.188	-208.32
853.358	643.7
853.529	787.06
853.699	-140.31
853.87	-240.5
854.04	429.88
854.21	624.15
854.381	-114.65
854.551	29.12
854.721	562.25
854.892	1527.9
855.062	-584.65
855.232	-434.77
855.402	1004.14
855.573	818.42
855.743	4.28
855.913	-300.37
856.083	851.82
856.253	677.91
856.423	-512.56
856.594	-229.91
856.764	663.25
856.934	815.98
857.104	-285.3
857.274	-304.03
857.444	539.85
857.614	872.18
857.784	30.75
857.954	-485.68
858.124	585.46
858.294	532.92
858.464	31.97
858.634	-342.32
858.804	916.98
858.974	747.15
859.143	-82.07
859.313	-435.18
859.483	672.21
859.653	821.68
859.823	-479.57
859.993	-587.9
860.162	522.74
860.332	1162.57
860.502	-267.78
860.672	28.71
860.841	799.28
861.011	709.27
861.181	-193.66
861.35	-91.03
861.52	700.72
861.69	1002.92
861.859	-157.01
862.029	-342.32
862.198	695.43
862.368	1147.1
862.538	-543.51
862.707	-244.98
862.877	710.09
863.046	1093.34
863.216	-506.45
863.385	-418.07
863.555	574.87
863.724	734.93
863.893	-79.62
864.063	36.86
864.232	917.39
864.402	497.49
864.571	-148.05
864.74	-431.1
864.91	676.28
865.079	751.22
865.248	-116.68
865.418	-63.33
865.587	604.6
865.756	527.63
865.925	-418.88
866.094	-148.05
866.264	1032.24
866.433	871.37
866.602	-317.07
866.771	-394.45
866.94	948.35
867.109	700.72
867.278	-339.06
867.448	-362.27
867.617	493.42
867.786	815.17
867.955	-216.47
868.124	-418.07
868.293	826.98
868.462	745.93
868.631	-383.86
868.8	-278.37
868.969	790.32
869.137	719.46
869.306	-82.07
869.475	-499.93
869.644	654.7
869.813	610.31
869.982	-169.63
870.151	-552.06
870.319	1105.96
870.488	386.71
870.657	-400.15
870.826	-374.08
870.995	570.39
871.163	598.09
871.332	-409.11
871.501	-409.52
871.669	642.89
871.838	752.85
872.007	1.43
872.175	-479.16
872.344	740.63
872.512	271.45
872.681	570.8
872.85	-238.87
873.018	684.43
873.187	637.19
873.355	618.86
873.524	-379.38
873.692	763.85
873.861	543.92
874.029	-498.71
874.197	-227.06
874.366	844.49
874.534	1025.73
874.703	-429.47
874.871	-210.36
875.039	479.98
875.208	800.1
875.376	-322.36
875.544	275.12
875.713	1028.58
875.881	559.4
876.049	-389.97
876.217	-307.29
876.386	609.49
876.554	762.22
876.722	-146.42
876.89	-253.53
877.058	583.42
877.226	930.43
877.395	-402.59
877.563	-471.42
877.731	587.09
877.899	683.21
878.067	-556.14
878.235	-154.15
878.403	400.56
878.571	539.44
878.739	-337.02
878.907	-30.34
879.075	553.69
879.243	499.12
879.411	-488.12
879.579	-602.16
879.747	648.18
879.914	646.96
880.082	-94.69
880.25	-381.42
880.418	528.44
880.586	664.47
880.754	-77.59
880.921	-163.52
881.089	666.51
881.257	204.66
881.425	-374.08
881.592	-406.26
881.76	709.68
881.928	673.84
882.095	-429.07
882.263	-337.02
882.431	414.4
882.598	980.11
882.766	-542.7
882.933	-115.06
883.101	648.59
883.269	706.42
883.436	-488.53
883.604	-315.44
883.771	875.04
883.939	418.88
884.106	-558.17
884.273	561.43
884.441	510.93
884.608	508.89
884.776	397.3
884.943	-134.61
885.11	711.72
885.278	399.34
885.445	-543.1
885.613	117.09
885.78	374.9
885.947	242.13
886.114	23.42
886.282	-243.35
886.449	504.01
886.616	714.57
886.783	-590.35
886.951	-399.34
887.118	428.25
887.285	618.04
887.452	-367.98
887.619	-315.84
887.786	160.67
887.953	567.95
888.12	-390.78
888.287	31.97
888.455	942.24
888.622	595.24
888.789	-186.33
888.956	-273.89
889.123	757.33
889.29	716.2
889.456	-284.89
889.623	-37.27
889.79	652.66
889.957	608.68
890.124	-554.1
890.291	-398.52
890.458	737.38
890.625	1128.36
890.791	36.45
890.958	-383.86
891.125	722.31
891.292	701.94
891.459	-390.38
891.625	-101.62
891.792	732.49
891.959	822.9
892.125	-181.85
892.292	-433.55
892.459	998.85
892.625	638.81
892.792	-380.19
892.959	-469.79
893.125	1128.77
893.292	499.12
893.458	-108.95
893.625	-21.79
893.791	372.86
893.958	454.32
894.124	-75.55
894.291	-484.86
894.457	803.35
894.624	630.26
894.79	-521.52
894.957	-374.49
895.123	840.82
895.289	843.68
895.456	-226.65
895.622	-458.8
895.788	1213.48
895.955	458.39
896.121	-187.14
896.287	165.15
896.454	750.82
896.62	704.79
896.786	-195.7
896.952	231.94
897.119	925.54
897.285	674.25
897.451	-196.92
897.617	-167.19
897.783	1018.4
897.949	664.07
898.115	-502.78
898.281	-134.61
898.448	927.98
898.614	335.8
898.78	-229.91
898.946	-179
899.112	1431.78
899.278	534.96
899.444	-310.14
899.61	42.56
899.775	690.54
899.941	559.8
900.107	-205.06
900.273	45
900.439	544.33
900.605	524.78
900.771	-179.81
900.937	-378.56
901.102	767.92
901.268	483.64
901.434	58.44
901.6	-48.67
901.766	919.84
901.931	698.68
902.097	-272.67
902.263	-440.06
902.428	589.13
902.594	388.75
902.76	-166.37
902.925	-227.06
903.091	897.03
903.256	845.3
903.422	-6.31
903.588	-547.99
903.753	597.27
903.919	1022.88
904.084	-47.04
904.25	-372.05
904.415	652.66
904.581	606.23
904.746	16.09
904.912	-390.38
905.077	496.67
905.242	398.93
905.408	-457.17
905.573	-454.32
905.738	515
905.904	781.77
906.069	781.77
