Data from FLMT087451__17__14-06-52-950.txt Node

Date: Tue Jun 04 14:06:52 JST 2024
User: power
Spectrometer: FLMT08745
Trigger mode: 0
Integration Time (sec): 2.000000E-1
Scans to average: 11
Electric dark correction enabled: true
Nonlinearity correction enabled: false
Boxcar width: 0
XAxis mode: Wavelengths
Number of Pixels in Spectrum: 3648
>>>>>Begin Spectral Data<<<<<
194.923	-335.71
195.148	-335.71
195.372	-335.71
195.597	-352
195.821	-322.38
196.046	75.82
196.271	-74.5
196.495	-99.3
196.72	-7.11
196.944	-34.33
197.169	-12.48
197.393	80.45
197.618	7.88
197.842	95.26
198.067	26.58
198.291	-115.78
198.516	57.5
198.74	-97.64
198.964	92.67
199.189	26.21
199.413	106.19
199.637	48.8
199.862	-10.44
200.086	23.8
200.31	166.35
200.535	18.07
200.759	191.53
200.983	-77.83
201.207	-54.13
201.432	-1.56
201.656	127.1
201.88	17.32
202.104	-23.03
202.328	65.46
202.552	84.53
202.777	27.88
203.001	47.69
203.225	-26.18
203.449	-169.1
203.673	35.1
203.897	8.25
204.121	24.36
204.345	91.38
204.569	-88.57
204.793	-9.15
205.017	31.76
205.241	54.35
205.465	-72.46
205.689	-22.48
205.912	31.76
206.136	-77.64
206.36	4
206.584	62.13
206.808	-84.31
207.032	78.23
207.255	62.87
207.479	96.56
207.703	1.4
207.927	7.14
208.15	-81.72
208.374	-6.19
208.598	-64.69
208.822	0.85
209.045	-45.25
209.269	24.91
209.492	212.08
209.716	129.14
209.94	54.16
210.163	59.72
210.387	121.55
210.61	83.6
210.834	-28.4
211.057	-15.81
211.281	-82.64
211.504	-40.99
211.728	-28.03
211.951	132.84
212.175	182.27
212.398	-20.07
212.622	-11.55
212.845	166.91
213.068	24.73
213.292	53.24
213.515	-55.06
213.738	-47.28
213.962	-26.37
214.185	-66.54
214.408	22.51
214.631	86.38
214.855	35.65
215.078	-15.26
215.301	71.01
215.524	-9.33
215.747	74.16
215.971	-35.81
216.194	-4.71
216.417	-34.33
216.64	36.76
216.863	717.29
217.086	93.04
217.309	-60.43
217.532	84.9
217.755	-65.61
217.978	44.91
218.201	137.47
218.424	128.77
218.647	-30.81
218.87	-21
219.093	113.78
219.316	135.81
219.539	-34.88
219.762	-25.44
219.985	28.99
220.207	-165.21
220.43	2.88
220.653	43.98
220.876	-41.92
221.099	139.88
221.321	23.06
221.544	-23.96
221.767	84.16
221.99	-29.14
222.212	36.21
222.435	77.12
222.658	101.74
222.88	-95.23
223.103	148.21
223.326	-109.49
223.548	43.61
223.771	-22.48
223.993	1.03
224.216	-25.81
224.438	21.77
224.661	-3.22
224.883	71.01
225.106	186.34
225.328	-34.51
225.551	121.37
225.773	-25.07
225.996	-29.51
226.218	4
226.44	65.09
226.663	22.88
226.885	-12.11
227.108	36.95
227.33	62.68
227.552	4.37
227.774	-1.74
227.997	28.99
228.219	41.02
228.441	100.08
228.663	167.09
228.886	9.92
229.108	-13.04
229.33	-30.07
229.552	-57.47
229.774	49.17
229.996	-0.82
230.219	98.04
230.441	-17.29
230.663	45.65
230.885	-26.74
231.107	14.18
231.329	24.73
231.551	113.96
231.773	-13.04
231.995	32.32
232.217	11.77
232.439	-26.37
232.661	-16
232.883	-5.45
233.105	-58.76
233.326	-28.4
233.548	111.92
233.77	-8.04
233.992	150.25
234.214	-10.07
234.436	-61.72
234.657	44.54
234.879	188.57
235.101	-89.86
235.323	25.1
235.544	21.03
235.766	76.38
235.988	126.36
236.21	94.34
236.431	155.61
236.653	93.97
236.874	150.99
237.096	56.76
237.318	-106.89
237.539	57.31
237.761	1.03
237.982	-3.78
238.204	178.75
238.425	-56.17
238.647	50.09
238.868	-16
239.09	83.23
239.311	-90.6
239.533	0.66
239.754	73.23
239.975	0.11
240.197	-31.92
240.418	-3.41
240.64	64.9
240.861	62.87
241.082	50.09
241.304	20.84
241.525	0.29
241.746	-3.59
241.967	-103.56
242.189	-4.89
242.41	136.36
242.631	243.92
242.852	-60.06
243.073	110.44
243.294	-0.45
243.516	46.57
243.737	7.14
243.958	-46.73
244.179	38.61
244.4	179.31
244.621	-35.07
244.842	17.51
245.063	137.84
245.284	50.46
245.505	38.98
245.726	54.16
245.947	128.03
246.168	-12.85
246.389	-11.74
246.61	79.71
246.831	114.15
247.052	-15.44
247.272	40.84
247.493	-11.55
247.714	119.7
247.935	-62.09
248.156	98.22
248.376	95.26
248.597	119.33
248.818	11.59
249.039	-38.95
249.259	-16.92
249.48	-83.75
249.701	50.09
249.921	-40.62
250.142	-46.54
250.363	77.12
250.583	16.03
250.804	71.38
251.025	131.18
251.245	91.56
251.466	93.6
251.686	-8.78
251.907	-65.06
252.127	111.18
252.348	45.46
252.568	-13.96
252.789	104.15
253.009	76.94
253.23	183.75
253.45	40.47
253.67	81.56
253.891	-50.43
254.111	131.18
254.331	57.31
254.552	30.28
254.772	58.61
254.992	16.95
255.213	-31.73
255.433	113.03
255.653	-2.3
255.873	77.49
256.093	89.34
256.314	-38.77
256.534	-62.83
256.754	165.24
256.974	-8.59
257.194	-22.29
257.414	-1.37
257.634	43.43
257.855	-5.82
258.075	-58.02
258.295	0.85
258.515	-54.5
258.735	71.38
258.955	41.21
259.175	-34.14
259.395	21.58
259.615	76.38
259.835	73.79
260.054	29.91
260.274	74.53
260.494	80.08
260.714	208.93
260.934	62.31
261.154	75.45
261.374	-19.15
261.593	10.48
261.813	-82.64
262.033	-4.52
262.253	38.98
262.472	48.43
262.692	38.06
262.912	49.35
263.132	50.83
263.351	100.26
263.571	192.45
263.791	46.39
264.01	180.42
264.23	45.46
264.449	-29.51
264.669	191.71
264.888	147.28
265.108	13.81
265.328	193.75
265.547	36.95
265.767	56.39
265.986	-75.24
266.205	85.27
266.425	28.25
266.644	73.42
266.864	-82.64
267.083	117.85
267.303	-2.11
267.522	59.72
267.741	44.54
267.961	115.44
268.18	-36.92
268.399	89.89
268.618	28.62
268.838	131.36
269.057	36.02
269.276	47.87
269.495	41.39
269.715	163.76
269.934	-25.07
270.153	116.55
270.372	-66.54
270.591	78.6
270.81	122.48
271.029	105.81
271.249	44.17
271.468	-14.52
271.687	131.36
271.906	68.23
272.125	113.78
272.344	121.37
272.563	10.85
272.782	32.13
273.001	-28.03
273.22	35.47
273.439	52.5
273.657	71.75
273.876	111.74
274.095	-81.72
274.314	114.52
274.533	148.21
274.752	-8.41
274.971	80.45
275.189	180.42
275.408	127.1
275.627	-13.22
275.846	121.37
276.064	33.43
276.283	-62.83
276.502	50.46
276.72	-52.47
276.939	1.77
277.158	17.88
277.376	-30.99
277.595	76.94
277.814	-1.93
278.032	96.19
278.251	-47.65
278.469	-33.77
278.688	34.17
278.906	218
279.125	36.58
279.343	11.4
279.562	49.72
279.78	-96.53
279.999	24.54
280.217	13.44
280.435	46.39
280.654	-51.91
280.872	78.6
281.091	57.87
281.309	67.68
281.527	130.44
281.746	41.76
281.964	-13.22
282.182	54.16
282.4	55.28
282.619	176.9
282.837	139.14
283.055	-10.44
283.273	0.85
283.491	47.32
283.71	91.75
283.928	14.18
284.146	5.48
284.364	-14.89
284.582	24.36
284.8	36.21
285.018	81.93
285.236	-82.83
285.454	136.18
285.672	62.31
285.89	3.81
286.108	-53.95
286.326	34.17
286.544	56.57
286.762	17.69
286.98	-73.57
287.198	155.8
287.416	313.16
287.634	124.7
287.851	39.91
288.069	56.94
288.287	28.99
288.505	-22.11
288.723	67.86
288.94	57.5
289.158	28.99
289.376	180.24
289.594	48.98
289.811	-26.74
290.029	11.77
290.247	203.01
290.464	101.93
290.682	-86.9
290.9	81.38
291.117	81.19
291.335	27.32
291.552	-60.06
291.77	63.79
291.987	16.4
292.205	37.13
292.422	39.54
292.64	114.15
292.857	-86.53
293.075	41.02
293.292	10.66
293.51	53.24
293.727	-1
293.945	36.02
294.162	30.65
294.379	36.02
294.597	52.5
294.814	42.69
295.031	49.72
295.249	87.3
295.466	34.73
295.683	42.13
295.9	78.6
296.118	0.29
296.335	-66.17
296.552	61.2
296.769	155.8
296.986	91
297.204	43.98
297.421	6.4
297.638	62.31
297.855	101.56
298.072	-15.26
298.289	81.38
298.506	-9.7
298.723	104.33
298.94	26.03
299.157	37.13
299.374	32.88
299.591	145.06
299.808	-40.25
300.025	-56.17
300.242	0.66
300.459	89.15
300.676	-47.47
300.893	-22.11
301.109	78.05
301.326	126.73
301.543	82.3
301.76	-25.99
301.977	-41.55
302.193	-11.18
302.41	119.14
302.627	-36.36
302.844	-16.74
303.06	-8.22
303.277	29.91
303.494	62.31
303.71	10.29
303.927	111.37
304.144	16.03
304.36	58.05
304.577	14.92
304.793	96.19
305.01	-20.26
305.227	-3.41
305.443	55.46
305.66	246.14
305.876	-79.5
306.093	17.69
306.309	47.13
306.526	-88.75
306.742	67.31
306.958	68.79
307.175	43.43
307.391	3.81
307.608	124.14
307.824	108.22
308.04	103.41
308.257	38.06
308.473	207.08
308.689	-16.55
308.905	127.47
309.122	-19.52
309.338	-50.06
309.554	89.89
309.77	48.43
309.986	57.68
310.203	-109.49
310.419	19.18
310.635	71.38
310.851	-32.47
311.067	128.03
311.283	41.21
311.499	-53.58
311.715	1.77
311.931	114.89
312.147	83.97
312.363	-85.24
312.579	88.23
312.795	83.78
313.011	-37.84
313.227	-19.89
313.443	132.29
313.659	76.57
313.875	13.44
314.091	107.67
314.307	112.48
314.523	3.63
314.738	27.14
314.954	153.95
315.17	-26.92
315.386	43.43
315.602	-11.74
315.817	10.85
316.033	8.81
316.249	-0.26
316.465	50.83
316.68	-13.22
316.896	64.35
317.112	-69.5
317.327	-15.44
317.543	250.58
317.758	16.03
317.974	87.86
318.19	91.93
318.405	18.25
318.621	46.02
318.836	1.77
319.052	-17.29
319.267	80.27
319.483	-28.59
319.698	73.42
319.914	-26.74
320.129	-1
320.344	135.44
320.56	74.53
320.775	146.91
320.99	62.68
321.206	70.83
321.421	105.44
321.636	14.73
321.852	71.94
322.067	34.54
322.282	-39.51
322.498	-21.37
322.713	99.71
322.928	99.52
323.143	17.88
323.358	44.91
323.574	150.99
323.789	-4.34
324.004	-20.81
324.219	40.84
324.434	127.84
324.649	14.55
324.864	88.04
325.079	-9.7
325.294	5.11
325.509	-76.35
325.724	122.48
325.939	-16.55
326.154	59.35
326.369	257.62
326.584	21.21
326.799	-26.74
327.014	139.88
327.229	3.07
327.444	70.46
327.659	-6
327.873	67.86
328.088	71.2
328.303	3.81
328.518	-26.18
328.733	-30.07
328.947	66.57
329.162	-21
329.377	23.25
329.591	105.44
329.806	-17.85
330.021	-33.77
330.235	143.77
330.45	70.09
330.665	-79.68
330.879	-21.55
331.094	81.93
331.309	37.13
331.523	42.5
331.738	46.76
331.952	79.71
332.167	129.14
332.381	-40.62
332.596	40.47
332.81	-36.18
333.025	-34.88
333.239	110.07
333.453	-23.03
333.668	64.72
333.882	103.41
334.097	27.88
334.311	50.09
334.525	80.27
334.74	42.69
334.954	-2.3
335.168	152.47
335.382	56.02
335.597	21.03
335.811	-34.7
336.025	45.09
336.239	-51.73
336.453	53.05
336.668	64.9
336.882	-43.58
337.096	69.72
337.31	63.05
337.524	70.64
337.738	41.02
337.952	35.28
338.166	28.43
338.38	57.87
338.594	118.59
338.808	-13.78
339.022	170.24
339.236	16.58
339.45	61.94
339.664	205.04
339.878	92.3
340.092	-26.92
340.306	-66.54
340.52	56.2
340.734	118.77
340.948	33.25
341.161	87.12
341.375	83.6
341.589	70.09
341.803	68.23
342.017	75.27
342.23	28.8
342.444	149.13
342.658	40.47
342.871	60.09
343.085	-29.7
343.299	-59.13
343.512	21.58
343.726	-38.95
343.94	53.24
344.153	105.07
344.367	122.29
344.58	8.44
344.794	-2.11
345.008	-50.43
345.221	-42.29
345.435	40.65
345.648	54.72
345.862	-6.74
346.075	34.17
346.288	26.21
346.502	126.73
346.715	72.12
346.929	-92.64
347.142	91.75
347.355	57.5
347.569	96.56
347.782	65.64
347.995	53.42
348.209	26.4
348.422	-75.79
348.635	62.5
348.848	85.82
349.062	-5.26
349.275	152.65
349.488	76.19
349.701	123.96
349.914	-132.07
350.128	64.72
350.341	14.92
350.554	-92.08
350.767	-8.22
350.98	74.16
351.193	22.51
351.406	-7.48
351.619	53.05
351.832	78.05
352.045	-8.96
352.258	-28.77
352.471	59.9
352.684	37.13
352.897	65.46
353.11	-26.92
353.323	89.15
353.536	-83.38
353.748	127.29
353.961	-47.1
354.174	11.22
354.387	11.96
354.6	-34.33
354.813	4.92
355.025	85.45
355.238	97.85
355.451	48.98
355.664	20.1
355.876	120.63
356.089	132.29
356.302	27.88
356.514	45.28
356.727	20.1
356.94	3.44
357.152	-42.47
357.365	35.1
357.577	-43.77
357.79	-52.65
358.002	-114.11
358.215	-44.69
358.427	-14.89
358.64	106.37
358.852	-36.36
359.065	-44.88
359.277	8.81
359.49	129.7
359.702	121.74
359.915	19.36
360.127	-25.81
360.339	-7.85
360.552	-24.88
360.764	35.65
360.976	72.68
361.189	-20.07
361.401	150.43
361.613	147.84
361.825	-67.28
362.038	38.06
362.25	131.36
362.462	57.68
362.674	5.66
362.886	159.87
363.099	118.96
363.311	109.89
363.523	72.49
363.735	130.81
363.947	26.58
364.159	125.44
364.371	103.04
364.583	14.73
364.795	19.36
365.007	85.27
365.219	-35.99
365.431	29.73
365.643	-24.51
365.855	-54.69
366.067	-97.64
366.279	7.51
366.491	-3.04
366.703	21.4
366.914	25.1
367.126	5.85
367.338	143.95
367.55	70.83
367.762	52.5
367.974	-11.93
368.185	-60.24
368.397	80.82
368.609	106
368.82	48.24
369.032	107.48
369.244	-1.37
369.456	108.41
369.667	42.69
369.879	172.28
370.09	-13.59
370.302	47.69
370.514	149.5
370.725	106
370.937	-44.14
371.148	-3.78
371.36	66.2
371.571	10.66
371.783	20.1
371.994	57.5
372.206	27.32
372.417	232.63
372.629	7.88
372.84	-1.37
373.051	6.59
373.263	115.07
373.474	44.91
373.685	-14.33
373.897	35.65
374.108	86.56
374.319	-22.85
374.531	46.76
374.742	93.6
374.953	1.03
375.164	-55.24
375.375	47.87
375.587	-17.29
375.798	73.79
376.009	113.22
376.22	99.71
376.431	25.47
376.642	-30.44
376.853	112.66
377.065	49.72
377.276	27.14
377.487	-12.67
377.698	-59.69
377.909	56.57
378.12	91.19
378.331	-37.1
378.542	4
378.753	26.95
378.964	30.47
379.174	85.27
379.385	52.31
379.596	-80.05
379.807	105.07
380.018	-50.06
380.229	189.86
380.44	185.42
380.65	-47.1
380.861	58.61
381.072	46.57
381.283	90.45
381.493	143.4
381.704	130.25
381.915	35.47
382.126	-41.55
382.336	134.32
382.547	111
382.757	33.25
382.968	-65.8
383.179	10.1
383.389	127.29
383.6	15.84
383.81	22.88
384.021	204.3
384.231	225.04
384.442	11.77
384.652	9.18
384.863	154.87
385.073	60.46
385.284	150.43
385.494	43.98
385.705	32.32
385.915	25.84
386.125	36.39
386.336	20.1
386.546	-22.66
386.756	122.48
386.967	-15.07
387.177	111.18
387.387	167.83
387.598	33.62
387.808	46.57
388.018	71.94
388.228	23.62
388.439	83.6
388.649	-21
388.859	-51.36
389.069	83.04
389.279	-38.03
389.489	14.73
389.699	30.65
389.909	-3.41
390.12	-65.61
390.33	126.73
390.54	25.47
390.75	129.51
390.96	29.73
391.17	23.43
391.38	-9.33
391.59	-80.24
391.799	3.63
392.009	98.41
392.219	50.65
392.429	31.39
392.639	10.1
392.849	10.1
393.059	119.7
393.269	106.74
393.478	89.52
393.688	160.98
393.898	108.22
394.108	-51.91
394.317	32.51
394.527	-33.03
394.737	91.19
394.947	31.76
395.156	-13.96
395.366	102.67
395.576	138.58
395.785	75.45
395.995	103.04
396.204	78.6
396.414	-63.76
396.624	7.51
396.833	-49.69
397.043	6.77
397.252	30.65
397.462	215.78
397.671	53.61
397.881	-66.54
398.09	31.02
398.299	-25.62
398.509	56.76
398.718	46.39
398.928	68.6
399.137	163.57
399.346	83.6
399.556	73.79
399.765	-57.47
399.974	-16.92
400.184	57.31
400.393	102.48
400.602	70.46
400.811	97.48
401.021	49.72
401.23	144.14
401.439	77.68
401.648	112.48
401.857	39.91
402.066	44.17
402.276	39.91
402.485	185.42
402.694	57.5
402.903	108.96
403.112	17.14
403.321	159.5
403.53	184.68
403.739	28.06
403.948	65.46
404.157	149.32
404.366	49.35
404.575	51.76
404.784	161.35
404.993	116.74
405.202	314.45
405.411	218.37
405.619	21.77
405.828	128.96
406.037	188.01
406.246	103.96
406.455	73.6
406.663	205.04
406.872	80.82
407.081	190.79
407.29	215.22
407.498	173.2
407.707	163.57
407.916	138.03
408.124	274.65
408.333	373.14
408.542	77.12
408.75	203.93
408.959	172.09
409.168	267.06
409.376	224.67
409.585	308.53
409.793	427.93
410.002	283.72
410.21	349.07
410.419	344.81
410.627	274.09
410.836	329.26
411.044	324.63
411.253	358.51
411.461	287.24
411.669	500.5
411.878	484.58
412.086	310.56
412.294	457.92
412.503	309.08
412.711	472.18
412.919	523.27
413.128	427.93
413.336	415.16
413.544	626.94
413.752	572.52
413.961	613.25
414.169	537.9
414.377	651.57
414.585	775.23
414.793	618.61
415.001	600.1
415.209	718.4
415.418	624.54
415.626	770.05
415.834	732.84
416.042	731.54
416.25	698.03
416.458	668.23
416.666	765.42
416.874	922.41
417.082	989.42
417.29	854.46
417.498	967.76
417.706	996.46
417.913	1039.04
418.121	1123.08
418.329	1302.47
418.537	1139.74
418.745	1149.56
418.953	1252.49
419.161	1388
419.368	1300.8
419.576	1243.78
419.784	1393.92
419.992	1434.84
420.199	1615.89
420.407	1511.11
420.615	1662.17
420.822	1684.94
421.03	1674.2
421.238	1778.61
421.445	1789.91
421.653	1705.3
421.861	1917.46
422.068	1865.62
422.276	2049.82
422.483	1974.48
422.691	2119.62
422.898	2379.16
423.106	2101.66
423.313	2274.01
423.521	2419.34
423.728	2474.32
423.936	2442.85
424.143	2558.74
424.35	2751.08
424.558	2656.3
424.765	2721.83
424.973	2718.31
425.18	2790.33
425.387	2972.68
425.594	2979.71
425.802	3243.7
426.009	3074.5
426.216	3140.59
426.424	3275.36
426.631	3471.04
426.838	3338.49
427.045	3437.16
427.252	3556.75
427.459	3780.57
427.667	3776.87
427.874	3733.73
428.081	3850.55
428.288	3906.45
428.495	4057.33
428.702	4296.7
428.909	4214.87
429.116	4185.25
429.323	4450.35
429.53	4515.89
429.737	4625.3
429.944	4787.65
430.151	4839.67
430.358	5066.08
430.565	5048.5
430.772	5099.41
430.979	5253.43
431.185	5394.68
431.392	5457.44
431.599	5789.74
431.806	5731.43
432.013	5907.85
432.219	6107.97
432.426	6087.79
432.633	6326.98
432.84	6403.62
433.046	6512.47
433.253	6716.11
433.46	6939
433.666	6968.07
433.873	7184.48
434.08	7394.04
434.286	7621.19
434.493	7836.49
434.7	7727.83
434.906	7906.66
435.113	8112.89
435.319	8439.08
435.526	8371.51
435.732	8702.51
435.939	8698.07
436.145	8924.11
436.352	9228.46
436.558	9182.18
436.765	9612.41
436.971	9596.12
437.177	9811.05
437.384	9958.97
437.59	10040.61
437.796	10183.89
438.003	10384.57
438.209	10705.39
438.415	10726.31
438.622	11059.17
438.828	11323.16
439.034	11277.99
439.24	11321.49
439.447	11593.07
439.653	11524.76
439.859	11886.68
440.065	11800.23
440.271	11949.07
440.477	12030.53
440.683	12297.48
440.89	12260.82
441.096	12917.28
441.302	12489.82
441.508	12660.14
441.714	12584.79
441.92	12724.56
442.126	12713.27
442.332	13043.72
442.538	12990.22
442.744	12892.47
442.95	13108.89
443.156	12855.26
443.361	13126.1
443.567	12983.74
443.773	12866.56
443.979	13039.65
444.185	12747.33
444.391	12759.18
444.596	12771.4
444.802	12790.47
445.008	12844.71
445.214	12605.34
445.42	12662.36
445.625	12589.42
445.831	12530.74
446.037	12600.34
446.242	12386.52
446.448	12118.46
446.654	12008.31
446.859	11847.25
447.065	11709.15
447.27	11683.78
447.476	11389.43
447.682	11216.71
447.887	11319.46
448.093	11231.34
448.298	10752.79
448.504	10844.24
448.709	10516.19
448.915	10574.51
449.12	10048.94
449.325	10181.12
449.531	10035.05
449.736	9706.45
449.942	9557.06
450.147	9450.98
450.352	9433.21
450.558	9007.79
450.763	8808.41
450.968	9008.53
451.174	8631.43
451.379	8304.68
451.584	8250.62
451.789	8114.74
451.995	8163.98
452.2	7711.35
452.405	7659.88
452.61	7555.84
452.815	7648.04
453.02	7197.62
453.226	7092.84
453.431	7119.87
453.636	6899.76
453.841	6772.76
454.046	6727.96
454.251	6646.87
454.456	6481.56
454.661	6341.97
454.866	6242.56
455.071	6160.18
455.276	6096.86
455.481	5913.03
455.686	5851.39
455.891	5799.18
456.095	5674.96
456.3	5607.76
456.505	5378.76
456.71	5517.79
456.915	5340.44
457.12	5261.58
457.324	5019.25
457.529	5135.32
457.734	5002.03
457.939	4909.47
458.144	4749.89
458.348	4708.05
458.553	4741
458.758	4516.44
458.962	4501.82
459.167	4541.81
459.372	4503.86
459.576	4627.52
459.781	4350.57
459.985	4279.85
460.19	4275.78
460.394	4113.24
460.599	4107.32
460.803	3971.06
461.008	4003.83
461.212	3873.5
461.417	3911.45
461.621	3698.74
461.826	3724.66
462.03	3563.41
462.235	3540.83
462.439	3558.05
462.643	3702.26
462.848	3549.72
463.052	3324.97
463.256	3394.02
463.461	3202.79
463.665	3200.2
463.869	3240.93
464.074	3090.05
464.278	3028.96
464.482	3159.47
464.686	2845.87
464.89	2932.88
465.095	3112.08
465.299	2746.27
465.503	2776.44
465.707	2699.8
465.911	2674.07
466.115	2699.25
466.319	2657.04
466.523	2748.12
466.727	2509.12
466.931	2529.3
467.135	2414.15
467.339	2414.89
467.543	2372.5
467.747	2327.7
467.951	2327.88
468.155	2220.51
468.359	2363.61
468.563	2142.2
468.767	2160.34
468.971	2055.38
469.175	2110.36
469.379	2048.9
469.582	2142.02
469.786	1992.81
469.99	1920.05
470.194	1941.15
470.397	2023.91
470.601	1878.95
470.805	2016.32
471.009	1895.06
471.212	1857.48
471.416	1861
471.62	1812.12
471.823	1813.05
472.027	1854.15
472.23	1586.45
472.434	1908.76
472.638	1690.49
472.841	1676.61
473.045	1680.13
473.248	1626.07
473.452	1644.21
473.655	1670.69
473.859	1599.97
474.062	1551.09
474.266	1586.08
474.469	1461.12
474.672	1558.31
474.876	1527.03
475.079	1488.89
475.283	1565.16
475.486	1484.45
475.689	1405.21
475.893	1462.79
476.096	1598.86
476.299	1359.3
476.502	1379.48
476.706	1425.02
476.909	1379.11
477.112	1500
477.315	1372.08
477.519	1442.8
477.722	1384.11
477.925	1276.92
478.128	1271.37
478.331	1298.4
478.534	1201.39
478.737	1324.69
478.94	1188.99
479.143	1114.01
479.346	1257.3
479.549	1272.66
479.752	1162.51
479.955	1137.89
480.158	1253.78
480.361	1193.25
480.564	1168.62
480.767	1133.82
480.97	1112.72
481.173	1069.95
481.376	1159.92
481.579	1090.69
481.782	1057.55
481.984	1120.12
482.187	1120.86
482.39	1130.12
482.593	1135.3
482.796	1151.78
482.998	1059.4
483.201	1131.97
483.404	1056.99
483.606	892.79
483.809	1167.14
484.012	1030.89
484.214	1034.59
484.417	1045.14
484.62	988.68
484.822	928.33
485.025	1090.5
485.227	1164.92
485.43	1008.86
485.632	995.16
485.835	1114.38
486.037	1069.21
486.24	971.09
486.442	1311.36
486.645	1026.63
486.847	1019.04
487.05	1043.11
487.252	1044.77
487.455	1025.71
487.657	1039.78
487.859	1061.25
488.062	1009.79
488.264	1012.75
488.466	1004.05
488.668	1044.96
488.871	945.92
489.073	1043.85
489.275	1055.33
489.477	998.86
489.68	1012.38
489.882	1059.58
490.084	1036.26
490.286	1125.12
490.488	1026.82
490.69	1009.42
490.893	1188.25
491.095	923.89
491.297	1143.63
491.499	1179.55
491.701	1183.43
491.903	1081.98
492.105	1076.8
492.307	1061.44
492.509	1300.06
492.711	1028.67
492.913	1171.03
493.115	1140.11
493.317	1058.1
493.518	1083.28
493.72	1112.35
493.922	1126.79
494.124	1110.12
494.326	1181.77
494.528	1040.89
494.73	1175.84
494.931	1258.78
495.133	1005.53
495.335	1158.81
495.537	1119.38
495.738	1273.96
495.94	1200.65
496.142	1061.25
496.343	1101.79
496.545	1115.49
496.747	1158.81
496.948	1119.01
497.15	1182.32
497.351	1091.61
497.553	1065.69
497.755	1183.25
497.956	1311.91
498.158	1141.6
498.359	1205.83
498.561	1178.07
498.762	1055.14
498.964	1187.88
499.165	1278.77
499.366	1207.5
499.568	1136.23
499.769	1236.38
499.971	1176.95
500.172	1214.16
500.373	1143.08
500.575	1172.7
500.776	1287.84
500.977	1189.36
501.178	1248.41
501.38	1263.96
501.581	1374.67
501.782	1191.39
501.983	1312.65
502.185	1196.21
502.386	1151.96
502.587	1172.7
502.788	1253.78
502.989	1191.76
503.19	1262.48
503.391	1254.71
503.593	1189.36
503.794	1181.03
503.995	1212.13
504.196	1399.48
504.397	1276.18
504.598	1188.06
504.799	1137.15
505	1342.83
505.201	1310.8
505.402	1266
505.602	1195.47
505.803	1190.28
506.004	1193.99
506.205	1279.33
506.406	1324.31
506.607	1226.01
506.808	1338.75
507.008	1240.45
507.209	1315.8
507.41	1339.87
507.611	1177.69
507.812	1188.06
508.012	1172.14
508.213	1156.41
508.414	1113.83
508.614	1169.18
508.815	1128.64
509.016	1331.53
509.216	1275.81
509.417	1223.42
509.617	1194.36
509.818	1187.14
510.019	1235.27
510.219	1165.11
510.42	1084.02
510.62	1170.29
510.821	1163.07
511.021	1238.42
511.222	1163.26
511.422	1231.01
511.623	1130.3
511.823	1201.58
512.023	1056.99
512.224	1214.54
512.424	982.76
512.624	1102.53
512.825	1017.01
513.025	1164.92
513.225	984.24
513.426	1047.92
513.626	962.76
513.826	1117.53
514.026	1108.83
514.227	1081.06
514.427	1016.08
514.627	936.11
514.827	962.95
515.027	1092.91
515.228	998.49
515.428	1064.21
515.628	967.95
515.828	990.72
516.028	913.15
516.228	1075.51
516.428	1025.71
516.628	933.7
516.828	832.43
517.028	966.84
517.228	858.54
517.428	869.09
517.628	920.37
517.828	957.77
518.028	980.17
518.228	854.28
518.428	844.1
518.627	842.99
518.827	762.83
519.027	883.71
519.227	952.77
519.427	914.82
519.626	799.3
519.826	863.72
520.026	781.9
520.226	836.88
520.425	854.28
520.625	715.99
520.825	651.57
521.024	818.18
521.224	692.29
521.424	784.3
521.623	678.78
521.823	708.03
522.023	764.49
522.222	671.38
522.422	672.86
522.621	782.64
522.821	705.07
523.02	710.44
523.22	736.54
523.419	750.98
523.619	680.45
523.818	590.1
524.017	606.95
524.217	648.23
524.416	763.94
524.616	873.72
524.815	520.5
525.014	631.02
525.214	604.54
525.413	601.95
525.612	730.25
525.812	601.58
526.011	594.18
526.21	652.31
526.409	588.99
526.608	763.94
526.808	542.16
527.007	625.09
527.206	662.86
527.405	512.35
527.604	540.49
527.803	591.77
528.003	542.53
528.202	604.17
528.401	748.76
528.6	474.03
528.799	483.47
528.998	461.63
529.197	479.95
529.396	467.74
529.595	542.9
529.794	525.13
529.993	494.76
530.192	569.56
530.39	475.88
530.589	509.39
530.788	510.69
530.987	392.39
531.186	408.31
531.385	438.67
531.583	476.99
531.782	506.06
531.981	359.44
532.18	429.23
532.379	335
532.577	398.5
532.776	349.26
532.975	448.85
533.173	331.48
533.372	401.65
533.571	378.51
533.769	420.16
533.968	543.82
534.166	355.92
534.365	238.18
534.564	392.95
534.762	414.79
534.961	246.88
535.159	526.24
535.358	354.99
535.556	288.16
535.755	373.51
535.953	345
536.151	528.09
536.35	237.44
536.548	342.22
536.747	292.24
536.945	293.53
537.143	324.08
537.342	293.53
537.54	280.02
537.738	378.69
537.937	327.04
538.135	345
538.333	245.21
538.531	338.15
538.73	225.04
538.928	373.88
539.126	213.74
539.324	462
539.522	378.14
539.72	258.73
539.919	270.95
540.117	162.46
540.315	344.07
540.513	343.7
540.711	255.77
540.909	247.62
541.107	284.83
541.305	235.4
541.503	387.39
541.701	270.95
541.899	231.7
542.097	386.84
542.295	173.57
542.493	191.34
542.691	150.25
542.888	245.21
543.086	137.1
543.284	122.85
543.482	338.15
543.68	333.71
543.878	296.49
544.075	195.42
544.273	180.79
544.471	215.41
544.669	286.5
544.866	292.42
545.064	236.7
545.262	257.99
545.459	221.89
545.657	328.15
545.855	195.05
546.052	86.56
546.25	274.46
546.447	382.39
546.645	167.46
546.842	242.99
547.04	198.19
547.238	102.48
547.435	202.08
547.633	161.17
547.83	258.17
548.027	123.4
548.225	224.11
548.422	222.81
548.62	130.07
548.817	184.86
549.014	170.42
549.212	253.55
549.409	266.13
549.606	189.31
549.804	212.45
550.001	244.1
550.198	157.47
550.396	92.12
550.593	44.91
550.79	117.85
550.987	58.42
551.184	191.16
551.382	265.02
551.579	111.37
551.776	14.73
551.973	108.22
552.17	78.42
552.367	219.85
552.564	97.48
552.761	115.44
552.958	111.18
553.155	183.75
553.353	192.08
553.55	115.07
553.746	97.67
553.943	195.6
554.14	234.11
554.337	197.64
554.534	218.19
554.731	201.53
554.928	114.89
555.125	360.73
555.322	134.51
555.519	73.05
555.715	133.58
555.912	90.82
556.109	145.43
556.306	69.16
556.503	164.87
556.699	140.43
556.896	218.93
557.093	221.15
557.289	208.37
557.486	98.6
557.683	324.08
557.879	88.41
558.076	45.09
558.273	83.23
558.469	140.62
558.666	94.89
558.862	196.34
559.059	129.7
559.255	202.08
559.452	82.3
559.648	114.52
559.845	93.04
560.041	88.78
560.238	254.84
560.434	114.33
560.631	68.23
560.827	139.32
561.023	115.44
561.22	57.31
561.416	117.85
561.612	135.81
561.809	88.97
562.005	93.04
562.201	145.25
562.398	189.86
562.594	144.69
562.79	6.4
562.986	266.87
563.182	136.92
563.379	98.04
563.575	98.78
563.771	165.98
563.967	231.89
564.163	89.89
564.359	170.98
564.555	367.4
564.751	158.39
564.947	165.8
565.144	145.99
565.34	287.05
565.536	240.22
565.732	206.71
565.928	169.31
566.123	202.08
566.319	198.19
566.515	363.88
566.711	169.87
566.907	292.42
567.103	165.61
567.299	80.08
567.495	215.22
567.691	153.21
567.886	362.21
568.082	232.07
568.278	299.83
568.474	320.38
568.669	309.82
568.865	266.69
569.061	248.92
569.257	302.97
569.452	344.81
569.648	256.88
569.844	290.39
570.039	308.16
570.235	330.74
570.43	313.34
570.626	409.98
570.822	594.55
571.017	524.76
571.213	376.47
571.408	373.88
571.604	465.7
571.799	372.4
571.995	428.67
572.19	429.97
572.385	395.35
572.581	494.76
572.776	627.69
572.972	642.87
573.167	530.86
573.362	638.05
573.558	708.22
573.753	666.93
573.948	747.83
574.144	696.92
574.339	750.24
574.534	720.8
574.729	735.43
574.925	881.31
575.12	937.4
575.315	770.6
575.51	970.72
575.705	946.1
575.9	983.31
576.096	1059.77
576.291	1049.4
576.486	1100.31
576.681	1190.1
576.876	1299.51
577.071	1316.72
577.266	1228.42
577.461	1371.34
577.656	1481.12
577.851	1483.52
578.046	1575.72
578.241	1652.73
578.436	1589.79
578.631	1715.86
578.826	1918.01
579.021	1759.92
579.215	1878.4
579.41	2087.59
579.605	2034.27
579.8	2079.26
579.995	2236.99
580.189	2233.28
580.384	2317.7
580.579	2483.39
580.774	2467.1
580.968	2534.11
581.163	2618.72
581.358	2825.32
581.552	2798.29
581.747	2891.41
581.942	2981.38
582.136	3105.41
582.331	3075.42
582.526	3276.28
582.72	3349.41
582.915	3466.96
583.109	3533.24
583.304	3655.05
583.498	3890.35
583.693	3854.43
583.887	4012.16
584.082	3956.07
584.276	4397.78
584.471	4136.75
584.665	4408.7
584.859	4381.49
585.054	4600.31
585.248	4736.93
585.442	4906.5
585.637	5063.49
585.831	5056.83
586.025	5307.49
586.22	5410.05
586.414	5440.41
586.608	5575.74
586.802	5644.79
586.997	5778.26
587.191	5881.38
587.385	6135.19
587.579	6219.05
587.773	6453.79
587.967	6531.91
588.162	6656.32
588.356	6730
588.55	6981.77
588.744	6992.13
588.938	7242.8
589.132	7334.8
589.326	7460.69
589.52	7578.24
589.714	7607.68
589.908	7870.56
590.102	8086.79
590.296	8107.89
590.49	8361.51
590.684	8439.27
590.877	8552.38
591.071	8662.53
591.265	8843.4
591.459	8953.36
591.653	9011.49
591.847	9257.34
592.04	9219.39
592.234	9419.51
592.428	9550.39
592.622	9697.01
592.815	9843.26
593.009	9977.29
593.203	10364.21
593.397	10202.59
593.59	10399.19
593.784	10454.18
593.977	10542.67
594.171	10662.26
594.365	10900.15
594.558	10902.92
594.752	11107.3
594.945	11065.83
595.139	11247.44
595.332	11205.05
595.526	11409.61
595.719	11480.15
595.913	11650.28
596.106	11616.4
596.3	11683.23
596.493	11886.68
596.687	11834.66
596.88	12083.66
597.073	12146.79
597.267	12163.26
597.46	12331.73
597.653	12316.73
597.847	12366.34
598.04	12523.15
598.233	12770.66
598.426	12437.06
598.62	12710.68
598.813	12660.51
599.006	12875.26
599.199	12968.74
599.392	12889.51
599.586	13008.55
599.779	12958.38
599.972	13043.17
600.165	13172.75
600.358	13104.26
600.551	13343.07
600.744	13212
600.937	13304.93
601.13	13298.27
601.323	13332.7
601.516	13359.36
601.709	13541.34
601.902	13471.36
602.095	13568.92
602.288	13430.63
602.481	13616.5
602.674	13568.74
602.867	13716.65
603.06	13610.02
603.252	13416.75
603.445	13803.85
603.638	13578.18
603.831	13855.68
604.024	13575.77
604.216	13793.11
604.409	13693.33
604.602	13509.5
604.795	13834.95
604.987	13671.3
605.18	13713.14
605.373	13829.4
605.565	13785.71
605.758	13783.48
605.951	13692.96
606.143	13744.42
606.336	13826.8
606.528	13695.73
606.721	13691.66
606.913	13638.16
607.106	13773.67
607.298	13729.98
607.491	13701.84
607.683	13613.35
607.876	13490.24
608.068	13467.47
608.261	13616.13
608.453	13501.17
608.646	13535.23
608.838	13336.22
609.03	13499.13
609.223	13233.85
609.415	13312.52
609.607	13243.29
609.8	13401.01
609.992	13120.73
610.184	13243.1
610.376	13274.57
610.569	13195.52
610.761	13036.87
610.953	13088.34
611.145	13188.67
611.337	13126.1
611.529	13074.27
611.722	13050.39
611.914	12874.89
612.106	12912.84
612.298	12887.84
612.49	12951.34
612.682	13152.02
612.874	13037.8
613.066	12841.93
613.258	12815.83
613.45	12779.73
613.642	12762.7
613.834	12747.89
614.026	12836.56
614.218	12653.85
614.41	12643.29
614.602	12675.51
614.793	12788.99
614.985	12736.78
615.177	12561.28
615.369	12574.43
615.561	12590.16
615.753	12557.21
615.944	12648.48
616.136	12435.95
616.328	12349.13
616.52	12411.7
616.711	12345.61
616.903	12436.88
617.095	12443.17
617.286	12292.66
617.478	12371.71
617.67	12204.36
617.861	12380.23
618.053	12431.88
618.244	12287.85
618.436	12274.71
618.627	12152.34
618.819	12155.86
619.01	12416.51
619.202	12169
619.393	12275.63
619.585	12129.01
619.776	12211.39
619.968	12124.38
620.159	12128.46
620.351	11992.02
620.542	11964.07
620.733	12036.08
620.925	11923.34
621.116	12031.45
621.307	11885.2
621.499	11915.19
621.69	11916.67
621.881	11744.51
622.072	11925.74
622.264	11705.44
622.455	11764.68
622.646	11814.11
622.837	11579.74
623.028	11732.47
623.22	11499.03
623.411	11663.42
623.602	11543.64
623.793	11504.03
623.984	11415.54
624.175	11480.33
624.366	11412.57
624.557	11256.7
624.748	11170.24
624.939	11299.65
625.13	11117.48
625.321	11140.25
625.512	11027.51
625.703	10953.65
625.894	11073.24
626.085	10819.62
626.276	10822.39
626.467	10801.29
626.658	10732.42
626.848	10745.38
627.039	10599.5
627.23	10473.43
627.421	10594.13
627.612	10576.73
627.802	10559.33
627.993	10396.23
628.184	10498.42
628.375	10440.11
628.565	10339.03
628.756	10099.85
628.947	10208.89
629.137	10245.73
629.328	10085.78
629.519	9936.56
629.709	10040.24
629.9	9823.45
630.09	9801.05
630.281	9849
630.471	9724.6
630.662	9726.08
630.852	9582.79
631.043	9579.27
631.233	9707.75
631.424	9683.13
631.614	9507.26
631.805	9536.51
631.995	9535.21
632.185	9393.59
632.376	9396.18
632.566	9337.13
632.756	9315.1
632.947	9178.1
633.137	9075.91
633.327	9350.09
633.518	9067.21
633.708	9184.77
633.898	9152
634.088	9023.71
634.279	8868.02
634.469	8838.95
634.659	8916.52
634.849	8811.92
635.039	8712.51
635.229	8753.05
635.42	8639.76
635.61	8626.98
635.8	8506.47
635.99	8576.81
636.18	8589.77
636.37	8425.94
636.56	8561.82
636.75	8442.6
636.94	8261.91
637.13	8247.47
637.32	8338.74
637.51	8137.69
637.7	8252.1
637.89	8129.36
638.079	8188.6
638.269	7922.95
638.459	7879.26
638.649	7921.47
638.839	8070.31
639.029	7987.37
639.218	7908.51
639.408	7746.34
639.598	7835.38
639.788	7731.71
639.977	7674.32
640.167	7602.5
640.357	7596.02
640.546	7432.36
640.736	7455.32
640.926	7548.62
641.115	7481.05
641.305	7350.72
641.495	7361.65
641.684	7279.82
641.874	7312.4
642.063	7210.58
642.253	7195.03
642.442	7270.01
642.632	7165.41
642.821	6975.47
643.011	6971.22
643.2	6972.33
643.39	7004.54
643.579	6930.86
643.768	6892.54
643.958	6909.94
644.147	6879.58
644.336	6676.12
644.526	6825.89
644.715	6638.91
644.904	6789.24
645.094	6729.07
645.283	6556.35
645.472	6613
645.661	6517.29
645.851	6385.66
646.04	6424.91
646.229	6250.7
646.418	6352.15
646.607	6323.83
646.796	6297.36
646.986	6321.42
647.175	6268.11
647.364	6276.07
647.553	6302.35
647.742	6178.51
647.931	6126.11
648.12	5995.05
648.309	6054.29
648.498	6019.85
648.687	6125.93
648.876	5791.59
649.065	5877.31
649.254	5855.46
649.443	5737.91
649.632	5917.48
649.82	5810.1
650.009	5699.4
650.198	5586.1
650.387	5666.08
650.576	5592.58
650.765	5732.72
650.953	5640.16
651.142	5512.42
651.331	5540.01
651.52	5546.67
651.708	5612.95
651.897	5552.41
652.086	5401.72
652.274	5303.6
652.463	5397.09
652.652	5372.47
652.84	5274.16
653.029	5289.72
653.217	5345.07
653.406	5355.62
653.594	5251.76
653.783	5333.41
653.972	5161.24
654.16	5111.07
654.349	5103.29
654.537	5174.38
654.725	5303.78
654.914	5015.91
655.102	4989.63
655.291	4920.94
655.479	4906.5
655.667	4970.93
655.856	4876.88
656.044	4919.83
656.232	4937.98
656.421	4894.29
656.609	4800.61
656.797	4873
656.986	4789.13
657.174	4795.24
657.362	4647.88
657.55	4748.59
657.738	4728.41
657.927	4716.19
658.115	4670.1
658.303	4509.78
658.491	4637.33
658.679	4568.46
658.867	4519.59
659.055	4416.48
659.243	4449.43
659.431	4449.8
659.619	4438.88
659.807	4410
659.995	4492.01
660.183	4457.2
660.371	4251.71
660.559	4438.69
660.747	4310.21
660.935	4264.12
661.123	4118.42
661.311	4161.56
661.499	4128.79
661.687	4136.75
661.875	4189.7
662.062	4181.18
662.25	4115.46
662.438	4118.61
662.626	4083.99
662.813	4039.37
663.001	3990.87
663.189	3905.71
663.377	3863.5
663.564	3936.81
663.752	3998.65
663.94	3830.92
664.127	3795.56
664.315	3889.42
664.502	3737.62
664.69	3931.45
664.878	3795.93
665.065	3765.02
665.253	3760.76
665.44	3761.68
665.628	3683.93
665.815	3696.89
666.003	3703
666.19	3631.36
666.378	3568.04
666.565	3575.63
666.752	3734.29
666.94	3592.85
667.127	3583.41
667.315	3549.9
667.502	3497.51
667.689	3266.47
667.877	3309.42
668.064	3605.62
668.251	3375.88
668.438	3350.89
668.626	3287.21
668.813	3319.05
669	3313.31
669.187	3189.46
669.374	3237.96
669.562	3115.22
669.749	3364.96
669.936	3254.44
670.123	3105.97
670.31	3282.02
670.497	3137.25
670.684	3202.05
670.871	3010.63
671.058	3120.96
671.245	3123.18
671.432	3128
671.619	3015.63
671.806	3131.7
671.993	3196.68
672.18	2993.6
672.367	2918.99
672.554	2892.15
672.741	2919.18
672.928	2977.49
673.115	2964.16
673.302	2915.47
673.488	2915.1
673.675	2906.59
673.862	2795.51
674.049	2919.36
674.235	2838.09
674.422	2816.62
674.609	2799.03
674.796	2779.04
674.982	2728.87
675.169	2712.58
675.356	2807.73
675.542	2788.11
675.729	2788.66
675.916	2674.81
676.102	2817.91
676.289	2744.97
676.475	2601.68
676.662	2583.17
676.848	2601.87
677.035	2585.21
677.221	2577.62
677.408	2603.35
677.594	2621.68
677.781	2632.42
677.967	2562.25
678.154	2452.1
678.34	2484.13
678.526	2350.1
678.713	2464.51
678.899	2365.46
679.085	2414.52
679.272	2309.56
679.458	2420.63
679.644	2414.52
679.831	2233.28
680.017	2439.33
680.203	2361.39
680.389	2380.09
680.576	2413.6
680.762	2189.78
680.948	2338.81
681.134	2231.8
681.32	2201.26
681.506	2247.17
681.692	2235.88
681.879	2182.74
682.065	2230.14
682.251	2263.46
682.437	2099.62
682.623	2151.27
682.809	1998.17
682.995	1944.49
683.181	2172.38
683.367	2208.48
683.553	1948
683.739	2071.3
683.924	2026.87
684.11	2032.61
684.296	2133.69
684.482	2181.08
684.668	1985.21
684.854	1943.01
685.04	1981.14
685.225	1920.98
685.411	1992.43
685.597	1857.48
685.783	1952.82
685.968	1811.75
686.154	1873.21
686.34	1770.1
686.526	1805.27
686.711	1769.17
686.897	1984.1
687.083	1748.44
687.268	1882.84
687.454	1815.45
687.639	1865.25
687.825	1767.69
688.01	1897.09
688.196	1817.12
688.382	1863.03
688.567	1860.07
688.752	1898.02
688.938	1636.25
689.123	1942.82
689.309	1754.18
689.494	1552.76
689.68	1761.03
689.865	1814.34
690.05	1724.74
690.236	1689.01
690.421	1568.68
690.606	1451.31
690.792	1599.23
690.977	1540.36
691.162	1598.67
691.348	1584.42
691.533	1509.81
691.718	1427.99
691.903	1526.66
692.089	1529.8
692.274	1466.31
692.459	1412.81
692.644	1561.83
692.829	1666.43
693.014	1482.41
693.199	1523.14
693.384	1410.58
693.569	1566.46
693.755	1516.29
693.94	1490.19
694.125	1563.5
694.31	1376.15
694.495	1419.84
694.68	1290.25
694.864	1446.87
695.049	1334.68
695.234	1339.31
695.419	1540.36
695.604	1373.93
695.789	1378.93
695.974	1450.02
696.159	1330.05
696.344	1383.93
696.528	1385.41
696.713	1281
696.898	1359.86
697.083	1317.47
697.267	1256.56
697.452	1243.78
697.637	1249.71
697.822	1246.56
698.006	1283.03
698.191	1323.76
698.375	1298.4
698.56	1300.06
698.745	1275.26
698.929	1220.09
699.114	1250.45
699.298	1280.63
699.483	1342.09
699.668	1087.17
699.852	1033.48
700.037	1165.29
700.221	1034.41
700.405	1301.73
700.59	1276.18
700.774	1134.01
700.959	1096.05
701.143	1159.92
701.328	1187.88
701.512	1018.12
701.696	1043.11
701.881	1085.32
702.065	1034.59
702.249	1014.6
702.433	1207.87
702.618	1033.48
702.802	1092.72
702.986	1092.17
703.17	1550.35
703.355	1000.71
703.539	924.07
703.723	1086.43
703.907	1027
704.091	1172.51
704.275	1000.71
704.46	939.25
704.644	1040.33
704.828	914.63
705.012	902.97
705.196	976.83
705.38	852.98
705.564	1158.81
705.748	912.59
705.932	1034.22
706.116	912.22
706.3	892.42
706.484	910.93
706.668	949.43
706.851	962.02
707.035	1048.48
707.219	1002.01
707.403	912.96
707.587	849.84
707.771	993.49
707.954	819.11
708.138	953.14
708.322	840.4
708.506	798
708.689	886.12
708.873	743.02
709.057	846.13
709.241	987.39
709.424	810.78
709.608	869.09
709.792	742.65
709.975	779.3
710.159	708.4
710.342	790.04
710.526	905.37
710.709	847.43
710.893	763.2
711.077	841.88
711.26	854.65
711.443	765.97
711.627	884.46
711.81	906.49
711.994	723.03
712.177	723.21
712.361	777.45
712.544	642.13
712.727	764.31
712.911	768.01
713.094	741.35
713.277	761.53
713.461	759.5
713.644	690.63
713.827	843.54
714.011	639.16
714.194	660.27
714.377	722.1
714.56	746.72
714.743	754.5
714.927	723.4
715.11	681.19
715.293	590.1
715.476	725.99
715.659	720.99
715.842	658.42
716.025	556.97
716.208	658.23
716.391	767.09
716.575	675.63
716.758	729.87
716.941	581.22
717.124	645.09
717.306	630.83
717.489	497.73
717.672	563.26
717.855	660.45
718.038	512.17
718.221	676.19
718.404	468.48
718.587	523.09
718.77	510.13
718.952	579
719.135	638.05
719.318	525.5
719.501	539.2
719.684	583.07
719.866	640.83
720.049	575.29
720.232	587.51
720.414	685.63
720.597	646.01
720.78	545.3
720.962	545.49
721.145	596.03
721.328	545.67
721.51	499.76
721.693	463.66
721.875	502.91
722.058	394.43
722.24	487.36
722.423	648.23
722.605	429.79
722.788	450.89
722.97	542.34
723.153	434.97
723.335	358.33
723.518	456.07
723.7	589.73
723.882	470.51
724.065	460.89
724.247	408.87
724.429	484.77
724.612	516.24
724.794	340.37
724.976	471.62
725.159	455.52
725.341	449.22
725.523	404.61
725.705	423.49
725.888	668.23
726.07	397.57
726.252	315.19
726.434	365.36
726.616	395.72
726.798	260.95
726.98	397.02
727.162	359.25
727.345	506.61
727.527	391.09
727.709	338.89
727.891	445.89
728.073	442.56
728.255	371.66
728.437	541.97
728.619	353.88
728.801	422.94
728.982	350.55
729.164	356.66
729.346	394.06
729.528	432.93
729.71	283.17
729.892	348.7
730.074	436.64
730.255	436.45
730.437	341.11
730.619	357.77
730.801	634.91
730.983	348.7
731.164	462.37
731.346	484.21
731.528	344.81
731.709	385.17
731.891	267.06
732.073	325.93
732.254	443.48
732.436	336.11
732.617	268.36
732.799	369.43
732.981	362.21
733.162	344.26
733.344	242.62
733.525	360.92
733.707	380.54
733.888	312.79
734.07	305.57
734.251	322.6
734.433	315.38
734.614	341.48
734.795	385.17
734.977	383.87
735.158	257.62
735.34	429.6
735.521	320.93
735.702	266.13
735.883	341.67
736.065	300.01
736.246	381.28
736.427	407.2
736.609	424.97
736.79	274.09
736.971	240.96
737.152	261.14
737.333	315.75
737.514	265.39
737.696	465.89
737.877	220.22
738.058	262.8
738.239	259.84
738.42	322.6
738.601	291.13
738.782	279.28
738.963	399.24
739.144	266.13
739.325	363.7
739.506	317.04
739.687	242.99
739.868	439.78
740.049	313.53
740.23	323.71
740.411	354.44
740.592	333.52
740.773	166.54
740.953	323.71
741.134	266.13
741.315	260.58
741.496	307.05
741.677	235.59
741.857	319.27
742.038	151.54
742.219	187.27
742.4	245.4
742.58	180.24
742.761	242.07
742.942	267.06
743.122	253.18
743.303	245.59
743.484	170.42
743.664	234.29
743.845	315.01
744.025	330.93
744.206	268.54
744.386	276.13
744.567	118.59
744.748	278.72
744.928	464.03
745.108	295.94
745.289	241.88
745.469	206.34
745.65	380.54
745.83	176.53
746.011	240.77
746.191	330.56
746.371	151.73
746.552	279.83
746.732	245.96
746.912	348.7
747.093	298.9
747.273	257.62
747.453	193.01
747.633	391.46
747.814	127.66
747.994	256.88
748.174	301.31
748.354	235.59
748.534	229.85
748.715	242.81
748.895	314.64
749.075	159.32
749.255	376.1
749.435	201.53
749.615	329.82
749.795	270.58
749.975	313.71
750.155	241.14
750.335	241.14
750.515	245.77
750.695	295.01
750.875	230.4
751.055	226.15
751.235	214.3
751.415	289.46
751.595	170.79
751.775	331.48
751.954	198.01
752.134	328.34
752.314	336.11
752.494	312.6
752.674	162.28
752.854	311.68
753.033	192.45
753.213	149.32
753.393	155.8
753.572	260.21
753.752	161.17
753.932	233.74
754.111	193.93
754.291	216.52
754.471	219.11
754.65	230.22
754.83	242.25
755.01	205.6
755.189	185.97
755.369	159.87
755.548	275.02
755.728	235.77
755.907	269.65
756.087	194.68
756.266	369.06
756.446	129.88
756.625	156.91
756.804	510.32
756.984	198.38
757.163	167.46
757.343	191.9
757.522	79.34
757.701	195.23
757.881	275.02
758.06	125.99
758.239	158.02
758.418	277.98
758.598	341.48
758.777	209.49
758.956	195.42
759.135	207.63
759.315	195.42
759.494	413.12
759.673	242.81
759.852	130.62
760.031	153.76
760.21	141.54
760.389	48.43
760.568	176.72
760.748	209.12
760.927	160.8
761.106	196.53
761.285	197.08
761.464	141.36
761.643	261.51
761.822	248.36
762	267.43
762.179	109.89
762.358	179.31
762.537	193.01
762.716	193.38
762.895	134.88
763.074	196.16
763.253	254.84
763.431	119.33
763.61	222.26
763.789	172.28
763.968	132.84
764.147	205.04
764.325	177.83
764.504	150.43
764.683	124.33
764.861	202.82
765.04	151.36
765.219	126.18
765.397	150.62
765.576	268.73
765.755	262.8
765.933	154.69
766.112	251.32
766.29	178.38
766.469	140.43
766.647	172.46
766.826	170.42
767.004	216.15
767.183	218.56
767.361	224.85
767.54	320.56
767.718	311.86
767.897	139.51
768.075	107.3
768.253	108.59
768.432	225.41
768.61	145.25
768.788	103.59
768.967	178.01
769.145	93.04
769.323	211.15
769.501	93.41
769.68	112.29
769.858	206.34
770.036	78.6
770.214	235.59
770.393	105.81
770.571	143.03
770.749	46.2
770.927	21.03
771.105	268.73
771.283	100.08
771.461	109.7
771.639	228.55
771.817	114.33
771.995	123.4
772.173	216.71
772.351	167.83
772.529	217.63
772.707	252.43
772.885	123.03
773.063	302.23
773.241	287.98
773.419	143.58
773.597	189.68
773.775	79.34
773.953	103.78
774.131	145.25
774.308	228.74
774.486	219.3
774.664	199.12
774.842	132.29
775.02	258.36
775.197	245.03
775.375	205.41
775.553	94.34
775.73	79.53
775.908	184.86
776.086	193.75
776.263	172.09
776.441	240.59
776.619	28.8
776.796	127.47
776.974	182.46
777.151	59.72
777.329	121.74
777.506	244.1
777.684	81.38
777.861	184.31
778.039	155.98
778.216	244.66
778.394	228.18
778.571	196.16
778.749	45.46
778.926	113.59
779.103	106.74
779.281	117.66
779.458	270.39
779.635	186.34
779.813	188.38
779.99	129.14
780.167	78.97
780.345	264.65
780.522	310.93
780.699	77.68
780.876	87.86
781.054	182.09
781.231	97.67
781.408	171.35
781.585	142.1
781.762	82.67
781.939	107.85
782.116	146.73
782.294	156.17
782.471	25.47
782.648	98.22
782.825	76.57
783.002	136.92
783.179	141.17
783.356	48.8
783.533	97.48
783.71	110.81
783.887	171.35
784.064	186.72
784.24	65.27
784.417	102.67
784.594	109.52
784.771	112.85
784.948	227.07
785.125	42.32
785.302	113.22
785.478	415.9
785.655	64.72
785.832	4.74
786.009	110.63
786.185	116.92
786.362	212.82
786.539	37.13
786.715	384.06
786.892	134.51
787.069	313.71
787.245	181.16
787.422	119.14
787.599	172.65
787.775	163.02
787.952	71.57
788.128	242.62
788.305	130.25
788.481	92.86
788.658	33.25
788.834	169.31
789.011	57.68
789.187	212.63
789.364	41.21
789.54	259.1
789.717	208.93
789.893	2.88
790.069	139.69
790.246	47.87
790.422	117.66
790.598	123.96
790.775	128.77
790.951	227.44
791.127	120.44
791.304	89.52
791.48	50.09
791.656	129.33
791.832	120.63
792.008	60.83
792.185	84.71
792.361	139.51
792.537	126.55
792.713	155.43
792.889	129.7
793.065	193.19
793.241	131.18
793.417	132.66
793.593	11.22
793.769	123.22
793.945	27.69
794.121	85.64
794.297	119.7
794.473	98.78
794.649	233.55
794.825	86.93
795.001	140.99
795.177	-34.33
795.353	159.32
795.529	161.17
795.705	141.91
795.881	103.78
796.056	140.25
796.232	100.45
796.408	183.94
796.584	74.53
796.76	137.66
796.935	60.46
797.111	84.71
797.287	35.65
797.462	184.68
797.638	198.38
797.814	74.34
797.989	90.82
798.165	163.2
798.341	325.19
798.516	103.22
798.692	173.57
798.867	197.45
799.043	158.76
799.218	209.86
799.394	105.07
799.569	374.06
799.745	153.76
799.92	139.88
800.096	139.69
800.271	143.21
800.447	353.51
800.622	150.62
800.797	19.92
800.973	32.88
801.148	139.51
801.323	179.5
801.499	41.21
801.674	41.02
801.849	210.23
802.025	150.43
802.2	251.32
802.375	185.42
802.55	204.12
802.725	33.43
802.901	103.04
803.076	136.73
803.251	109.52
803.426	98.78
803.601	160.61
803.776	34.91
803.951	48.24
804.127	53.61
804.302	54.91
804.477	99.52
804.652	203.38
804.827	14.92
805.002	4.92
805.177	122.29
805.352	312.05
805.526	130.44
805.701	253.36
805.876	207.82
806.051	50.09
806.226	138.95
806.401	191.9
806.576	132.47
806.751	119.88
806.925	80.45
807.1	92.12
807.275	43.61
807.45	53.98
807.625	433.86
807.799	156.17
807.974	107.85
808.149	3.07
808.323	111.74
808.498	132.1
808.673	127.47
808.847	1.77
809.022	123.77
809.197	220.22
809.371	71.2
809.546	177.09
809.72	100.26
809.895	121.55
810.069	-52.1
810.244	269.65
810.418	33.25
810.593	210.6
810.767	171.16
810.942	198.56
811.116	309.27
811.29	122.11
811.465	67.49
811.639	138.21
811.814	264.65
811.988	285.02
812.162	170.79
812.337	65.09
812.511	184.86
812.685	129.33
812.859	111.37
813.034	164.31
813.208	162.09
813.382	24.54
813.556	168.57
813.73	186.72
813.905	50.09
814.079	73.23
814.253	150.25
814.427	252.06
814.601	26.03
814.775	132.84
814.949	49.17
815.123	175.42
815.297	33.43
815.471	47.87
815.645	102.3
815.819	140.99
815.993	102.3
816.167	69.72
816.341	92.49
816.515	140.43
816.689	-44.32
816.863	103.96
817.037	93.97
817.21	156.17
817.384	89.15
817.558	116.92
817.732	257.06
817.906	144.32
818.079	-29.33
818.253	184.68
818.427	33.99
818.601	131.55
818.774	212.26
818.948	90.26
819.122	243.18
819.295	112.85
819.469	98.41
819.643	110.26
819.816	71.2
819.99	147.47
820.163	53.79
820.337	66.01
820.511	196.34
820.684	169.31
820.858	172.83
821.031	1.03
821.205	107.85
821.378	139.69
821.551	167.28
821.725	131.18
821.898	107.85
822.072	147.28
822.245	199.67
822.418	151.36
822.592	27.32
822.765	39.35
822.938	187.64
823.112	55.09
823.285	175.61
823.458	124.14
823.631	52.87
823.805	125.44
823.978	161.72
824.151	123.77
824.324	173.76
824.497	163.39
824.671	144.69
824.844	121.37
825.017	98.97
825.19	-44.51
825.363	-60.98
825.536	77.49
825.709	71.2
825.882	106
826.055	68.97
826.228	-44.14
826.401	57.5
826.574	74.16
826.747	90.82
826.92	133.77
827.093	104.15
827.266	142.1
827.439	101.93
827.612	25.84
827.785	48.43
827.957	122.85
828.13	81.75
828.303	119.88
828.476	99.52
828.649	34.36
828.821	191.9
828.994	100.08
829.167	90.63
829.34	244.1
829.512	159.87
829.685	253.73
829.858	161.54
830.03	184.31
830.203	201.53
830.375	268.91
830.548	139.14
830.721	118.22
830.893	65.27
831.066	112.11
831.238	125.25
831.411	246.51
831.583	135.99
831.756	180.98
831.928	33.43
832.101	85.27
832.273	96
832.446	56.39
832.618	136.18
832.79	126.92
832.963	44.54
833.135	58.24
833.307	113.96
833.48	175.42
833.652	84.9
833.824	237.44
833.997	112.29
834.169	120.81
834.341	105.26
834.513	8.25
834.686	75.64
834.858	135.25
835.03	129.7
835.202	49.54
835.374	23.99
835.546	132.84
835.718	57.68
835.891	125.62
836.063	61.01
836.235	124.14
836.407	91
836.579	155.43
836.751	-5.08
836.923	83.6
837.095	113.41
837.267	138.03
837.439	143.4
837.611	34.36
837.782	117.29
837.954	138.21
838.126	104.15
838.298	196.34
838.47	224.11
838.642	34.54
838.814	200.41
838.985	58.79
839.157	52.13
839.329	21.03
839.501	203.38
839.672	5.11
839.844	175.24
840.016	65.09
840.188	193.93
840.359	151.54
840.531	47.87
840.702	19.73
840.874	302.79
841.046	17.32
841.217	49.54
841.389	104.33
841.56	94.52
841.732	-44.32
841.903	114.7
842.075	12.51
842.246	57.5
842.418	218.19
842.589	74.9
842.761	123.59
842.932	80.64
843.104	250.95
843.275	124.33
843.446	34.17
843.618	29.91
843.789	153.95
843.96	-83.57
844.132	100.82
844.303	136.92
844.474	34.73
844.646	133.58
844.817	-61.91
844.988	50.65
845.159	231.52
845.331	159.5
845.502	-10.07
845.673	79.71
845.844	-60.43
846.015	200.78
846.186	62.5
846.357	71.38
846.528	80.64
846.7	9.92
846.871	50.28
847.042	52.31
847.213	121.74
847.384	413.31
847.555	160.8
847.726	20.84
847.897	202.45
848.067	-40.99
848.238	164.69
848.409	68.79
848.58	140.8
848.751	110.44
848.922	97.3
849.093	124.14
849.264	68.23
849.434	161.54
849.605	31.21
849.776	18.07
849.947	4.74
850.117	43.43
850.288	131.73
850.459	35.65
850.63	135.62
850.8	160.24
850.971	237.44
851.142	13.62
851.312	-112.45
851.483	-22.29
851.653	73.6
851.824	91.93
851.995	43.61
852.165	170.05
852.336	86.38
852.506	190.6
852.677	148.58
852.847	110.07
853.018	118.22
853.188	42.5
853.358	163.02
853.529	164.69
853.699	151.36
853.87	100.82
854.04	-30.62
854.21	83.97
854.381	65.27
854.551	213.37
854.721	37.5
854.892	101
855.062	-17.85
855.232	24.36
855.402	110.07
855.573	99.34
855.743	108.59
855.913	25.1
856.083	67.86
856.253	153.76
856.423	-24.33
856.594	40.84
856.764	118.77
856.934	102.11
857.104	65.64
857.274	176.16
857.444	34.54
857.614	31.58
857.784	115.07
857.954	16.03
858.124	4.55
858.294	-17.66
858.464	180.24
858.634	-13.78
858.804	112.85
858.974	-10.81
859.143	-8.22
859.313	-44.88
859.483	121.74
859.653	-8.96
859.823	73.79
859.993	15.66
860.162	121
860.332	117.48
860.502	41.02
860.672	122.48
860.841	144.88
861.011	57.13
861.181	-13.04
861.35	256.32
861.52	71.57
861.69	103.04
861.859	94.89
862.029	46.94
862.198	41.02
862.368	92.12
862.538	51.76
862.707	103.04
862.877	99.34
863.046	140.06
863.216	-16.18
863.385	113.78
863.555	109.52
863.724	203.56
863.893	78.6
864.063	259.28
864.232	262.8
864.402	41.95
864.571	23.43
864.74	72.86
864.91	-33.58
865.079	142.66
865.248	91.19
865.418	114.33
865.587	102.67
865.756	89.52
865.925	124.33
866.094	274.28
866.264	174.87
866.433	46.2
866.602	173.57
866.771	26.58
866.94	102.3
867.109	26.4
867.278	119.88
867.448	69.16
867.617	43.43
867.786	142.1
867.955	68.97
868.124	-11.74
868.293	84.53
868.462	22.69
868.631	142.66
868.8	222.26
868.969	91
869.137	142.47
869.306	100.45
869.475	103.22
869.644	19.73
869.813	4.74
869.982	133.95
870.151	30.84
870.319	51.57
870.488	52.13
870.657	113.59
870.826	31.76
870.995	47.13
871.163	35.47
871.332	107.85
871.501	108.96
871.669	33.62
871.838	163.76
872.007	151.73
872.175	106.37
872.344	9.73
872.512	-56.17
872.681	65.09
872.85	139.14
873.018	81.56
873.187	-9.89
873.355	181.35
873.524	22.88
873.692	105.26
873.861	104.52
874.029	53.98
874.197	134.51
874.366	177.64
874.534	73.97
874.703	-25.25
874.871	81.56
875.039	2.88
875.208	24.54
875.376	138.21
875.544	213.74
875.713	112.11
875.881	76.19
876.049	131.55
876.217	114.7
876.386	97.3
876.554	96.56
876.722	193.38
876.89	185.42
877.058	87.12
877.226	95.82
877.395	23.8
877.563	30.28
877.731	29.36
877.899	37.5
878.067	27.32
878.235	10.1
878.403	16.21
878.571	52.13
878.739	67.12
878.907	187.27
879.075	150.43
879.243	55.83
879.411	-5.63
879.579	7.7
879.747	90.08
879.914	38.24
880.082	24.91
880.25	46.57
880.418	98.41
880.586	-20.26
880.754	133.95
880.921	98.04
881.089	11.4
881.257	115.44
881.425	35.47
881.592	94.89
881.76	70.09
881.928	198.93
882.095	104.33
882.263	167.46
882.431	25.66
882.598	252.62
882.766	21.03
882.933	47.69
883.101	-6.19
883.269	31.39
883.436	90.63
883.604	66.57
883.771	223.93
883.939	-3.78
884.106	-44.51
884.273	144.88
884.441	58.61
884.608	4.55
884.776	176.16
884.943	194.86
885.11	-16.92
885.278	-8.96
885.445	61.75
885.613	97.3
885.78	14.36
885.947	43.06
886.114	155.61
886.282	169.13
886.449	48.8
886.616	100.26
886.783	-10.26
886.951	73.79
887.118	-8.78
887.285	208.75
887.452	27.88
887.619	13.81
887.786	-112.08
887.953	45.09
888.12	37.69
888.287	138.4
888.455	148.02
888.622	34.54
888.789	53.79
888.956	54.16
889.123	-0.45
889.29	-13.41
889.456	58.24
889.623	39.17
889.79	83.23
889.957	141.17
890.124	59.9
890.291	116.18
890.458	69.53
890.625	201.71
890.791	80.27
890.958	34.73
891.125	138.95
891.292	112.29
891.459	38.8
891.625	105.07
891.792	103.96
891.959	-76.72
892.125	-10.26
892.292	-27.11
892.459	38.8
892.625	169.87
892.792	189.12
892.959	-29.7
893.125	294.09
893.292	-44.32
893.458	145.99
893.625	125.99
893.791	93.78
893.958	-2.85
894.124	136.92
894.291	-4.34
894.457	85.27
894.624	82.3
894.79	76.57
894.957	93.23
895.123	90.82
895.289	94.71
895.456	187.64
895.622	53.42
895.788	65.09
895.955	58.24
896.121	154.5
896.287	310.19
896.454	43.43
896.62	27.88
896.786	51.39
896.952	102.48
897.119	109.89
897.285	153.02
897.451	34.54
897.617	138.21
897.783	119.51
897.949	27.51
898.115	65.64
898.281	-3.41
898.448	195.05
898.614	25.84
898.78	71.57
898.946	102.3
899.112	206.71
899.278	-31.73
899.444	54.54
899.61	244.29
899.775	76.38
899.941	90.08
900.107	51.94
900.273	101.56
900.439	100.45
900.605	79.9
900.771	119.88
900.937	124.33
901.102	206.15
901.268	123.22
901.434	50.65
901.6	132.29
901.766	128.96
901.931	194.86
902.097	124.7
902.263	149.13
902.428	154.69
902.594	4.74
902.76	61.38
902.925	40.1
903.091	163.76
903.256	15.47
903.422	183.01
903.588	13.81
903.753	25.84
903.919	150.8
904.084	100.45
904.25	67.31
904.415	223.93
904.581	71.01
904.746	212.26
904.912	95.26
905.077	64.16
905.242	-4.52
905.408	35.47
905.573	76.57
905.738	71.38
905.904	742.28
906.069	742.28
