Data from FLMT087451__23__14-14-40-108.txt Node

Date: Tue Jun 04 14:14:40 JST 2024
User: power
Spectrometer: FLMT08745
Trigger mode: 0
Integration Time (sec): 5.000000E-3
Scans to average: 11
Electric dark correction enabled: true
Nonlinearity correction enabled: false
Boxcar width: 0
XAxis mode: Wavelengths
Number of Pixels in Spectrum: 3648
>>>>>Begin Spectral Data<<<<<
194.923	-4.2
195.148	-4.2
195.372	-4.2
195.597	-14.93
195.821	-7.53
196.046	1.17
196.271	11.54
196.495	-7.34
196.72	27.09
196.944	-8.45
197.169	10.61
197.393	-5.49
197.618	-13.82
197.842	-6.05
198.067	25.42
198.291	-21.97
198.516	-12.71
198.74	-6.42
198.964	17.46
199.189	27.28
199.413	27.83
199.637	-2.34
199.862	25.24
200.086	10.06
200.31	38.01
200.535	21.54
200.759	16.17
200.983	-14.93
201.207	22.46
201.432	0.62
201.656	42.27
201.88	16.35
202.104	26.53
202.328	14.87
202.552	24.31
202.777	0.43
203.001	38.75
203.225	13.76
203.449	23.76
203.673	18.2
203.897	19.5
204.121	24.87
204.345	26.16
204.569	1.36
204.793	20.98
205.017	27.46
205.241	28.57
205.465	-11.42
205.689	13.58
205.912	21.91
206.136	30.61
206.36	2.28
206.584	16.54
206.808	15.06
207.032	21.54
207.255	37.09
207.479	3.58
207.703	16.54
207.927	35.79
208.15	0.25
208.374	40.79
208.598	18.76
208.822	30.61
209.045	-1.05
209.269	21.35
209.492	16.72
209.716	20.24
209.94	5.43
210.163	63.56
210.387	16.17
210.61	21.72
210.834	3.39
211.057	24.31
211.281	12.84
211.504	23.94
211.728	12.28
211.951	32.64
212.175	19.13
212.398	32.27
212.622	8.76
212.845	48.01
213.068	22.28
213.292	34.31
213.515	20.06
213.738	37.09
213.962	36.35
214.185	22.28
214.408	21.72
214.631	-5.31
214.855	-2.16
215.078	25.05
215.301	18.57
215.524	31.9
215.747	20.61
215.971	34.5
216.194	21.54
216.417	36.9
216.64	17.65
216.863	62.08
217.086	14.5
217.309	46.71
217.532	39.86
217.755	43.38
217.978	36.35
218.201	51.53
218.424	30.61
218.647	21.91
218.87	32.83
219.093	46.34
219.316	13.21
219.539	33.94
219.762	29.31
219.985	37.83
220.207	24.68
220.43	21.17
220.653	21.91
220.876	20.06
221.099	18.94
221.321	34.87
221.544	-2.34
221.767	61.34
221.99	47.64
222.212	40.97
222.435	16.35
222.658	38.57
222.88	23.02
223.103	53.19
223.326	33.57
223.548	21.17
223.771	14.32
223.993	22.09
224.216	19.5
224.438	26.72
224.661	9.69
224.883	63.93
225.106	20.8
225.328	44.86
225.551	1.54
225.773	34.68
225.996	44.49
226.218	41.9
226.44	18.02
226.663	32.09
226.885	29.13
227.108	28.2
227.33	42.46
227.552	7.65
227.774	10.61
227.997	37.27
228.219	13.21
228.441	21.17
228.663	28.2
228.886	28.94
229.108	32.09
229.33	56.9
229.552	15.43
229.774	30.42
229.996	22.65
230.219	46.71
230.441	15.43
230.663	37.64
230.885	13.39
231.107	31.9
231.329	44.12
231.551	32.46
231.773	42.83
231.995	47.64
232.217	15.24
232.439	24.87
232.661	20.24
232.883	28.2
233.105	38.2
233.326	32.83
233.548	40.6
233.77	48.75
233.992	37.27
234.214	52.45
234.436	19.87
234.657	26.16
234.879	47.27
235.101	28.76
235.323	25.79
235.544	14.69
235.766	11.17
235.988	42.83
236.21	20.24
236.431	23.57
236.653	24.31
236.874	30.98
237.096	22.46
237.318	33.94
237.539	6.73
237.761	28.2
237.982	33.01
238.204	41.16
238.425	25.42
238.647	20.61
238.868	23.76
239.09	45.97
239.311	9.69
239.533	23.76
239.754	26.72
239.975	29.31
240.197	25.98
240.418	35.98
240.64	28.39
240.861	31.16
241.082	29.68
241.304	38.01
241.525	28.2
241.746	41.9
241.967	8.21
242.189	35.98
242.41	29.13
242.631	61.71
242.852	16.91
243.073	37.83
243.294	7.65
243.516	60.23
243.737	13.76
243.958	36.53
244.179	40.97
244.4	31.16
244.621	15.24
244.842	28.94
245.063	29.68
245.284	25.61
245.505	34.68
245.726	47.45
245.947	27.83
246.168	28.57
246.389	20.06
246.61	47.45
246.831	13.58
247.052	60.41
247.272	15.06
247.493	32.46
247.714	44.31
247.935	38.38
248.156	46.71
248.376	33.75
248.597	15.61
248.818	65.97
249.039	23.76
249.259	18.57
249.48	12.47
249.701	17.65
249.921	21.54
250.142	51.9
250.363	18.39
250.583	45.6
250.804	25.98
251.025	52.82
251.245	24.13
251.466	30.79
251.686	37.27
251.907	31.16
252.127	25.05
252.348	42.27
252.568	0.62
252.789	45.6
253.009	35.05
253.23	47.27
253.45	41.72
253.67	22.28
253.891	25.98
254.111	29.68
254.331	24.68
254.552	19.13
254.772	21.54
254.992	35.42
255.213	10.06
255.433	34.87
255.653	31.9
255.873	28.57
256.093	23.02
256.314	33.01
256.534	7.47
256.754	44.12
256.974	30.61
257.194	37.27
257.414	32.83
257.634	51.34
257.855	25.05
258.075	49.31
258.295	22.46
258.515	32.46
258.735	38.75
258.955	37.27
259.175	12.47
259.395	39.49
259.615	7.47
259.835	54.49
260.054	20.98
260.274	24.5
260.494	42.09
260.714	50.79
260.934	40.79
261.154	43.75
261.374	13.02
261.593	37.83
261.813	36.16
262.033	16.91
262.253	23.2
262.472	42.27
262.692	19.31
262.912	42.09
263.132	26.72
263.351	43.38
263.571	6.17
263.791	27.09
264.01	48.93
264.23	47.82
264.449	17.65
264.669	49.12
264.888	26.72
265.108	48.19
265.328	42.46
265.547	43.2
265.767	8.58
265.986	55.78
266.205	-11.79
266.425	32.64
266.644	30.98
266.864	31.35
267.083	29.5
267.303	37.27
267.522	-0.86
267.741	45.97
267.961	17.09
268.18	41.9
268.399	13.76
268.618	39.31
268.838	19.69
269.057	48.01
269.276	23.57
269.495	17.65
269.715	13.76
269.934	57.27
270.153	44.12
270.372	23.2
270.591	25.24
270.81	40.42
271.029	34.31
271.249	48.19
271.468	33.38
271.687	52.45
271.906	27.28
272.125	51.9
272.344	32.27
272.563	46.16
272.782	40.23
273.001	32.83
273.22	50.42
273.439	39.31
273.657	29.68
273.876	52.45
274.095	47.27
274.314	49.86
274.533	20.98
274.752	32.64
274.971	45.05
275.189	58.75
275.408	7.65
275.627	33.01
275.846	27.46
276.064	24.5
276.283	28.2
276.502	51.53
276.72	19.13
276.939	38.2
277.158	41.72
277.376	22.28
277.595	19.87
277.814	38.01
278.032	30.61
278.251	26.9
278.469	36.53
278.688	44.68
278.906	6.91
279.125	58.01
279.343	1.17
279.562	37.64
279.78	18.57
279.999	47.82
280.217	27.28
280.435	50.23
280.654	15.43
280.872	50.6
281.091	42.64
281.309	49.31
281.527	32.46
281.746	18.94
281.964	19.5
282.182	68
282.4	26.16
282.619	53.75
282.837	25.42
283.055	18.94
283.273	23.76
283.491	23.39
283.71	21.91
283.928	29.68
284.146	10.24
284.364	66.34
284.582	14.32
284.8	34.5
285.018	27.46
285.236	43.57
285.454	30.24
285.672	29.68
285.89	15.06
286.108	43.94
286.326	42.64
286.544	65.6
286.762	16.91
286.98	32.27
287.198	32.46
287.416	48.75
287.634	33.38
287.851	71.71
288.069	19.31
288.287	29.13
288.505	28.2
288.723	45.6
288.94	13.95
289.158	61.15
289.376	29.13
289.594	37.64
289.811	33.38
290.029	43.75
290.247	26.53
290.464	41.16
290.682	21.17
290.9	60.04
291.117	40.05
291.335	38.01
291.552	14.5
291.77	62.26
291.987	21.35
292.205	29.68
292.422	16.35
292.64	42.27
292.857	44.31
293.075	28.02
293.292	28.39
293.51	53.38
293.727	56.71
293.945	64.12
294.162	38.38
294.379	55.97
294.597	17.46
294.814	43.57
295.031	29.31
295.249	33.75
295.466	18.57
295.683	19.5
295.9	42.27
296.118	13.95
296.335	24.87
296.552	45.97
296.769	21.17
296.986	30.79
297.204	33.75
297.421	50.23
297.638	20.24
297.855	51.34
298.072	20.24
298.289	33.57
298.506	36.16
298.723	47.64
298.94	21.35
299.157	42.27
299.374	24.5
299.591	39.31
299.808	18.94
300.025	22.65
300.242	46.9
300.459	46.9
300.676	18.94
300.893	45.79
301.109	46.16
301.326	35.98
301.543	32.09
301.76	40.42
301.977	30.79
302.193	52.45
302.41	18.02
302.627	46.9
302.844	40.05
303.06	46.34
303.277	54.86
303.494	65.6
303.71	28.94
303.927	61.34
304.144	12.47
304.36	52.82
304.577	24.87
304.793	60.41
305.01	36.53
305.227	44.31
305.443	12.28
305.66	27.09
305.876	41.16
306.093	53.38
306.309	10.8
306.526	20.98
306.742	22.28
306.958	37.83
307.175	7.65
307.391	43.94
307.608	30.24
307.824	48.01
308.04	37.64
308.257	54.86
308.473	46.34
308.689	31.72
308.905	36.9
309.122	40.23
309.338	29.13
309.554	44.68
309.77	45.6
309.986	45.42
310.203	35.24
310.419	55.41
310.635	34.31
310.851	24.5
311.067	45.97
311.283	24.31
311.499	19.31
311.715	53.75
311.931	37.46
312.147	36.53
312.363	38.01
312.579	33.38
312.795	29.31
313.011	33.57
313.227	33.57
313.443	59.3
313.659	45.79
313.875	38.38
314.091	34.5
314.307	43.01
314.523	48.01
314.738	46.34
314.954	34.31
315.17	33.57
315.386	23.02
315.602	51.53
315.817	13.58
316.033	38.94
316.249	38.57
316.465	33.75
316.68	30.98
316.896	42.09
317.112	31.35
317.327	36.72
317.543	43.94
317.758	38.57
317.974	6.54
318.19	58.93
318.405	22.28
318.621	44.12
318.836	39.31
319.052	46.9
319.267	21.91
319.483	27.83
319.698	23.94
319.914	23.02
320.129	24.13
320.344	40.6
320.56	34.87
320.775	34.12
320.99	19.31
321.206	49.49
321.421	48.75
321.636	43.2
321.852	19.5
322.067	55.04
322.282	46.34
322.498	44.31
322.713	28.39
322.928	50.23
323.143	24.87
323.358	30.61
323.574	27.46
323.789	41.34
324.004	28.2
324.219	37.46
324.434	41.53
324.649	47.45
324.864	41.53
325.079	49.31
325.294	13.76
325.509	40.05
325.724	36.16
325.939	18.39
326.154	37.27
326.369	38.01
326.584	44.49
326.799	14.87
327.014	40.6
327.229	27.46
327.444	20.43
327.659	62.45
327.873	16.91
328.088	50.42
328.303	30.98
328.518	40.23
328.733	19.5
328.947	62.63
329.162	13.95
329.377	48.93
329.591	17.09
329.806	7.47
330.021	28.2
330.235	41.16
330.45	39.86
330.665	35.05
330.879	29.87
331.094	49.68
331.309	48.38
331.523	30.98
331.738	36.72
331.952	40.05
332.167	21.91
332.381	32.64
332.596	29.13
332.81	39.31
333.025	47.08
333.239	31.9
333.453	16.91
333.668	53.19
333.882	30.42
334.097	52.08
334.311	37.09
334.525	36.53
334.74	21.17
334.954	42.27
335.168	31.72
335.382	38.75
335.597	22.46
335.811	42.46
336.025	30.42
336.239	33.38
336.453	29.68
336.668	45.42
336.882	25.79
337.096	47.82
337.31	20.98
337.524	54.86
337.738	27.83
337.952	65.78
338.166	39.86
338.38	51.34
338.594	37.09
338.808	33.75
339.022	42.46
339.236	53.56
339.45	36.9
339.664	47.08
339.878	26.35
340.092	35.05
340.306	42.46
340.52	18.94
340.734	27.28
340.948	53.93
341.161	56.15
341.375	52.45
341.589	19.5
341.803	62.26
342.017	51.9
342.23	33.2
342.444	8.95
342.658	17.83
342.871	54.67
343.085	54.3
343.299	33.57
343.512	28.02
343.726	20.06
343.94	43.57
344.153	32.09
344.367	63.19
344.58	15.8
344.794	37.46
345.008	31.35
345.221	52.64
345.435	32.27
345.648	32.64
345.862	10.24
346.075	37.09
346.288	18.94
346.502	25.42
346.715	42.09
346.929	35.98
347.142	42.64
347.355	26.72
347.569	44.86
347.782	45.42
347.995	41.34
348.209	63
348.422	22.09
348.635	77.81
348.848	28.94
349.062	42.83
349.275	56.34
349.488	61.71
349.701	38.2
349.914	37.64
350.128	28.57
350.341	39.86
350.554	47.64
350.767	63.37
350.98	26.35
351.193	57.45
351.406	45.79
351.619	63.37
351.832	37.27
352.045	52.82
352.258	11.54
352.471	30.24
352.684	30.98
352.897	31.9
353.11	26.35
353.323	43.57
353.536	25.24
353.748	53.75
353.961	27.83
354.174	58.01
354.387	27.28
354.6	29.13
354.813	14.69
355.025	39.49
355.238	15.98
355.451	65.23
355.664	15.43
355.876	56.15
356.089	48.75
356.302	39.68
356.514	36.53
356.727	37.83
356.94	37.09
357.152	34.87
357.365	43.38
357.577	28.94
357.79	29.87
358.002	38.2
358.215	63.75
358.427	32.27
358.64	44.68
358.852	18.02
359.065	45.79
359.277	37.27
359.49	47.82
359.702	43.01
359.915	39.49
360.127	26.53
360.339	27.83
360.552	64.67
360.764	22.46
360.976	49.12
361.189	24.87
361.401	13.21
361.613	34.12
361.825	62.45
362.038	23.02
362.25	39.68
362.462	16.17
362.674	17.46
362.886	27.09
363.099	38.75
363.311	24.31
363.523	40.6
363.735	27.65
363.947	60.04
364.159	15.43
364.371	39.86
364.583	27.83
364.795	30.98
365.007	47.45
365.219	40.05
365.431	42.27
365.643	56.53
365.855	12.84
366.067	45.23
366.279	44.68
366.491	41.34
366.703	22.09
366.914	48.93
367.126	29.31
367.338	31.9
367.55	44.49
367.762	42.64
367.974	38.38
368.185	25.42
368.397	39.31
368.609	49.49
368.82	55.97
369.032	48.19
369.244	28.57
369.456	34.5
369.667	28.02
369.879	47.08
370.09	20.61
370.302	43.57
370.514	34.68
370.725	63.37
370.937	34.87
371.148	54.49
371.36	32.46
371.571	31.35
371.783	40.6
371.994	35.79
372.206	23.76
372.417	50.05
372.629	40.97
372.84	61.71
373.051	27.09
373.263	44.86
373.474	29.87
373.685	27.46
373.897	33.94
374.108	46.34
374.319	17.65
374.531	54.12
374.742	31.72
374.953	47.45
375.164	37.64
375.375	30.98
375.587	8.76
375.798	50.23
376.009	45.05
376.22	41.34
376.431	13.95
376.642	39.31
376.853	25.42
377.065	52.45
377.276	41.53
377.487	38.38
377.698	39.68
377.909	41.34
378.12	40.05
378.331	36.72
378.542	28.02
378.753	48.01
378.964	37.27
379.174	29.13
379.385	34.31
379.596	61.34
379.807	28.02
380.018	35.61
380.229	52.08
380.44	34.87
380.65	45.23
380.861	47.08
381.072	47.45
381.283	45.05
381.493	38.57
381.704	40.05
381.915	37.09
382.126	49.68
382.336	41.34
382.547	45.42
382.757	19.87
382.968	43.01
383.179	45.97
383.389	49.49
383.6	17.28
383.81	34.12
384.021	37.46
384.231	61.89
384.442	38.2
384.652	43.57
384.863	35.61
385.073	69.85
385.284	37.83
385.494	28.76
385.705	41.16
385.915	41.72
386.125	43.38
386.336	51.53
386.546	41.72
386.756	36.72
386.967	19.13
387.177	54.67
387.387	34.31
387.598	62.45
387.808	4.32
388.018	38.2
388.228	36.9
388.439	38.94
388.649	35.79
388.859	50.97
389.069	42.27
389.279	46.16
389.489	36.72
389.699	67.26
389.909	34.31
390.12	46.16
390.33	22.83
390.54	39.12
390.75	27.28
390.96	54.49
391.17	21.91
391.38	54.86
391.59	37.27
391.799	28.2
392.009	48.75
392.219	50.05
392.429	40.05
392.639	28.02
392.849	48.56
393.059	57.27
393.269	46.16
393.478	55.6
393.688	70.04
393.898	77.07
394.108	45.42
394.317	62.45
394.527	32.27
394.737	56.15
394.947	49.68
395.156	70.04
395.366	52.64
395.576	55.04
395.785	37.64
395.995	46.16
396.204	66.52
396.414	37.46
396.624	39.49
396.833	70.59
397.043	46.34
397.252	70.41
397.462	54.12
397.671	44.31
397.881	78.18
398.09	63.37
398.299	65.41
398.509	67.63
398.718	63.56
398.928	66.89
399.137	86.7
399.346	68.56
399.556	86.15
399.765	63
399.974	59.12
400.184	75.41
400.393	60.23
400.602	80.59
400.811	83.74
401.021	83.18
401.23	68.56
401.439	106.32
401.648	112.62
401.857	100.21
402.066	106.14
402.276	102.07
402.485	94.11
402.694	111.51
402.903	121.13
403.112	120.95
403.321	119.1
403.53	115.95
403.739	141.68
403.948	152.42
404.157	128.91
404.366	138.54
404.575	148.72
404.784	162.6
404.993	170.56
405.202	174.45
405.411	181.67
405.619	170.75
405.828	209.07
406.037	214.44
406.246	227.21
406.455	231.65
406.663	232.02
406.872	263.5
407.081	270.9
407.29	262.02
407.498	285.34
407.707	290.15
407.916	320.14
408.124	308.11
408.333	337.73
408.542	356.24
408.75	369.94
408.959	394.2
409.168	399.19
409.376	436.96
409.585	432.7
409.793	450.84
410.002	443.07
410.21	501.57
410.419	506.38
410.627	540.07
410.836	523.04
411.044	572.1
411.253	604.13
411.461	652.82
411.669	660.96
411.878	700.21
412.086	687.25
412.294	742.79
412.503	772.78
412.711	787.03
412.919	822.95
413.128	876.63
413.336	896.44
413.544	929.58
413.752	966.79
413.961	1014.18
414.169	1045.65
414.377	1069.54
414.585	1131.37
414.793	1191.9
415.001	1221.52
415.209	1260.4
415.418	1318.53
415.626	1386.47
415.834	1407.76
416.042	1463.48
416.25	1532.17
416.458	1577.89
416.666	1634.35
416.874	1707.66
417.082	1738.03
417.29	1811.52
417.498	1845.58
417.706	1956.66
417.913	2036.26
418.121	2092.73
418.329	2217.69
418.537	2244.9
418.745	2325.43
418.953	2366.53
419.161	2459.09
419.368	2527.4
419.576	2686.06
419.784	2741.59
419.992	2903.21
420.199	2997.07
420.407	3017.62
420.615	3124.43
420.822	3202.56
421.03	3370.65
421.238	3449.89
421.445	3646.3
421.653	3554.67
421.861	3705.36
422.068	3909.74
422.276	4008.97
422.483	4143.18
422.691	4284.06
422.898	4468.63
423.106	4512.88
423.313	4767.98
423.521	4887.39
423.728	5052.34
423.936	5158.6
424.143	5297.63
424.35	5604.57
424.558	5670.84
424.765	5804.87
424.973	5912.06
425.18	6110.15
425.387	6409.13
425.594	6421.53
425.802	6720.14
426.009	6825.47
426.216	7024.12
426.424	7242.19
426.631	7538.58
426.838	7638.36
427.045	7814.42
427.252	8028.98
427.459	8351.65
427.667	8464.21
427.874	8744.68
428.081	8825.02
428.288	9061.61
428.495	9521.1
428.702	9699.19
428.909	10009.27
429.116	10041.86
429.323	10548.18
429.53	10551.32
429.737	11098.18
429.944	11074.3
430.151	11544.52
430.358	11673.19
430.565	11729.09
430.772	12041.59
430.979	12407.58
431.185	12793.75
431.392	13035.16
431.599	13296.37
431.806	13475.94
432.013	13838.79
432.219	14087.79
432.426	14148.88
432.633	14852.91
432.84	14940.29
433.046	15240.75
433.253	15606.93
433.46	15864.81
433.666	16289.49
433.873	16499.98
434.08	16714.72
434.286	17262.33
434.493	17535.2
434.7	17711.63
434.906	17987.65
435.113	18436.58
435.319	18838.68
435.526	19203.74
435.732	19621.02
435.939	19599.17
436.145	20262.3
436.352	20903.2
436.558	20898.39
436.765	21244.57
436.971	21738.86
437.177	22068.2
437.384	22909.97
437.59	22802.41
437.796	22931.81
438.003	23627.7
438.209	23951.86
438.415	24289.34
438.622	25040.77
438.828	25740.18
439.034	25851.44
439.24	26352.2
439.447	26776.33
439.653	27039.39
439.859	28199.95
440.065	27802.11
440.271	28508
440.477	28781.61
440.683	29665.4
440.89	30256.33
441.096	31179.37
441.302	30781.71
441.508	31491.49
441.714	31999.29
441.92	32501.54
442.126	33110.42
442.332	34021.98
442.538	34343.35
442.744	34641.78
442.95	35493.36
443.156	35398.57
443.361	35963.39
443.567	36779.43
443.773	36626.14
443.979	37245.02
444.185	37404.6
444.391	38001.45
444.596	38370.96
444.802	38640.13
445.008	38481.85
445.214	39319.54
445.42	39226.06
445.625	40382.72
445.831	40180.57
446.037	41245.78
446.242	41206.35
446.448	41223.2
446.654	41555.5
446.859	41511.99
447.065	41867.25
447.27	41802.64
447.476	41629.73
447.682	41778.57
447.887	42150.12
448.093	42226.02
448.298	41364.45
448.504	42448.17
448.709	41775.8
448.915	41883.54
449.12	41051.77
449.325	41669.35
449.531	41775.43
449.736	40593.03
449.942	40709.84
450.147	40661.89
450.352	40668.37
450.558	39507.45
450.763	38915.6
450.968	39070.18
451.174	39212.91
451.379	37788.18
451.584	37433.11
451.789	37471.24
451.995	37261.87
452.2	36655.95
452.405	36844.41
452.61	35760.68
452.815	35805.48
453.02	34436.47
453.226	34412.41
453.431	33842.59
453.636	33414.39
453.841	32566.51
454.046	32387.87
454.251	32196.45
454.456	31244.34
454.661	30562.71
454.866	30185.42
455.071	29476.39
455.276	29323.48
455.481	28344.16
455.686	28193.1
455.891	28261.04
456.095	27265.99
456.3	27087.71
456.505	26282.6
456.71	26215.02
456.915	25621.51
457.12	25080.76
457.324	24389.31
457.529	24441.7
457.734	23510.52
457.939	23691.94
458.144	23162.85
458.348	23054
458.553	22793.52
458.758	21953.24
458.962	21926.02
459.167	21701.47
459.372	21106.1
459.576	21248.46
459.781	20803.79
459.985	20522.4
460.19	20359.86
460.394	20076.8
460.599	19857.8
460.803	19489.95
461.008	19236.33
461.212	18769.07
461.417	18718.16
461.621	18274.23
461.826	18237.94
462.03	18056.33
462.235	17876.95
462.439	17777.9
462.643	17300.46
462.848	17200.87
463.052	17192.16
463.256	17017.96
463.461	16458.7
463.665	16495.35
463.869	16532.19
464.074	16240.8
464.278	15891.1
464.482	15833.34
464.686	15752.44
464.89	15678.57
465.095	15561.76
465.299	15277.59
465.503	15064.88
465.707	14944.73
465.911	14818.85
466.115	14837.36
466.319	14674.45
466.523	14401.2
466.727	14192.94
466.931	14241.63
467.135	13986.89
467.339	13833.05
467.543	14052.61
467.747	13769.74
467.951	13655.89
468.155	13447.62
468.359	13460.21
468.563	13252.68
468.767	12882.24
468.971	12701.75
469.175	12787.46
469.379	12559.01
469.582	12490.7
469.786	12449.98
469.99	12169.32
470.194	12097.5
470.397	12068.06
470.601	11831.28
470.805	11964.39
471.009	11711.51
471.212	11688
471.416	11398.64
471.62	11310.89
471.823	11239.07
472.027	11101.89
472.23	10964.52
472.434	11083.37
472.638	10842.16
472.841	10823.64
473.045	10812.91
473.248	10832.53
473.452	10493.93
473.655	10363.23
473.859	10460.8
474.062	10461.54
474.266	10270.3
474.469	10246.6
474.672	10180.51
474.876	9990.76
475.079	10134.23
475.283	10052.59
475.486	9970.21
475.689	9864.69
475.893	9739.54
476.096	9896.16
476.299	9646.43
476.502	9696.78
476.706	9727.14
476.909	9550.16
477.112	9699.74
477.315	9607.18
477.519	9600.51
477.722	9541.83
477.925	9348.37
478.128	9383.92
478.331	9460.37
478.534	9373.92
478.737	9393.73
478.94	9365.77
479.143	9261.92
479.346	9422.98
479.549	9232.85
479.752	9181.76
479.955	9228.78
480.158	9249.33
480.361	9188.42
480.564	9231.56
480.767	9045.88
480.97	9205.46
481.173	9094.01
481.376	9149.36
481.579	9169.36
481.782	9143.07
481.984	9162.69
482.187	9255.81
482.39	9140.11
482.593	9028.29
482.796	9108.26
482.998	9192.31
483.201	9227.67
483.404	9102.16
483.606	9151.03
483.809	9204.9
484.012	9221.19
484.214	9181.76
484.417	9192.13
484.62	9149.18
484.822	9254.51
485.025	9336.52
485.227	9279.14
485.43	9279.32
485.632	9316.53
485.835	9466.48
486.037	9441.31
486.24	9562.38
486.442	9455.19
486.645	9547.2
486.847	9563.3
487.05	9596.26
487.252	9674.57
487.455	9519.98
487.657	9736.77
487.859	9751.21
488.062	9811.93
488.264	9858.58
488.466	9789.71
488.668	9964.29
488.871	9978.54
489.073	10036.67
489.275	10085.92
489.477	10185.7
489.68	10223.83
489.882	10365.64
490.084	10377.49
490.286	10544.47
490.488	10513.93
490.69	10697.39
490.893	10735.34
491.095	10876.96
491.297	10968.23
491.499	11019.14
491.701	11101.7
491.903	11145.39
492.105	11325.15
492.307	11416.79
492.509	11415.49
492.711	11566.37
492.913	11630.05
493.115	11759.08
493.317	11900.71
493.518	11859.98
493.72	12131.93
493.922	12140.44
494.124	12290.4
494.326	12364.82
494.528	12453.49
494.73	12683.79
494.931	12860.96
495.133	12941.11
495.335	13168.63
495.537	13242.69
495.738	13454.84
495.94	13611.83
496.142	13781.96
496.343	13829.9
496.545	13895.07
496.747	14187.01
496.948	14295.31
497.15	14680.37
497.351	14723.14
497.553	14855.69
497.755	15020.45
497.956	15357.75
498.158	15320.35
498.359	15650.43
498.561	15823.71
498.762	15842.04
498.964	16009.95
499.165	16415.75
499.366	16408.9
499.568	16695.47
499.769	17000.74
499.971	16990.56
500.172	17299.54
500.373	17531.5
500.575	17566.49
500.776	17890.28
500.977	18059.48
501.178	18390.49
501.38	18611.53
501.581	18659.29
501.782	18954.75
501.983	18977.89
502.185	19110.44
502.386	19771.16
502.587	19657.12
502.788	20140.48
502.989	20134.19
503.19	20534.25
503.391	20502.03
503.593	21043.34
503.794	21011.87
503.995	21213.1
504.196	21504.31
504.397	21724.98
504.598	22207.23
504.799	22424.2
505	22584.15
505.201	22717.44
505.402	23094.17
505.602	23285.03
505.803	23453.68
506.004	23801.72
506.205	24041.64
506.406	24227.33
506.607	24445.77
506.808	24758.45
507.008	24974.12
507.209	25432.68
507.41	25465.45
507.611	25762.58
507.812	25883.46
508.012	26187.81
508.213	26360.9
508.414	26896.1
508.614	26799.65
508.815	27122.14
509.016	27787.11
509.216	27896.52
509.417	28044.26
509.617	28391.74
509.818	28547.8
510.019	28787.91
510.219	29400.12
510.42	29452.88
510.62	29684.1
510.821	29868.12
511.021	30042.51
511.222	30411.09
511.422	30399.24
511.623	30995.16
511.823	31633.85
512.023	31424.29
512.224	31830.08
512.424	32310.12
512.624	32336.4
512.825	32473.77
513.025	32827.17
513.225	32901.04
513.426	33212.6
513.626	33381.44
513.826	33554.72
514.026	33882.21
514.227	34077.7
514.427	34271.16
514.627	34621.78
514.827	34791.36
515.027	34539.96
515.228	35398.02
515.428	35453
515.628	35516.68
515.828	35793.63
516.028	36120.75
516.228	36617.81
516.428	36773.32
516.628	36609.85
516.828	37025.46
517.028	37124.69
517.228	37517.9
517.428	37594.17
517.628	37495.13
517.828	38264.7
518.028	38481.11
518.228	38514.62
518.428	38840.81
518.627	39142.93
518.827	38976.13
519.027	39001.13
519.227	39683.87
519.427	39455.24
519.626	39901.95
519.826	40067.64
520.026	40354.95
520.226	40496.2
520.425	40545.08
520.625	40644.86
520.825	40936.99
521.024	40722.61
521.224	40663.74
521.424	41248
521.623	41213.38
521.823	41024.37
522.023	41523.65
522.222	41602.7
522.422	41670.27
522.621	41879.84
522.821	42190.29
523.02	41732.11
523.22	41912.79
523.419	42072.55
523.619	42220.28
523.818	42550.55
524.017	42656.81
524.217	42745.12
524.416	42860.82
524.616	43169.98
524.815	43450.82
525.014	43474.33
525.214	43446
525.413	43602.25
525.612	43465.44
525.812	43831.99
526.011	43371.58
526.21	43811.63
526.409	43885.86
526.608	44007.31
526.808	44394.59
527.007	44149.3
527.206	43909.37
527.405	44004.9
527.604	44195.21
527.803	44187.43
528.003	44044.7
528.202	44609.71
528.401	44107.83
528.6	44210.57
528.799	44686.9
528.998	44586.94
529.197	44396.63
529.396	44930.16
529.595	44867.4
529.794	45074.19
529.993	44904.24
530.192	45227.29
530.39	45017.91
530.589	45382.24
530.788	45313.19
530.987	45433.33
531.186	45837.83
531.385	45710.47
531.583	46177.72
531.782	46104.04
531.981	45793.59
532.18	45809.88
532.379	45760.82
532.577	45825.24
532.776	45781
532.975	45848.01
533.173	45743.05
533.372	45909.48
533.571	45612.72
533.769	45634.75
533.968	46156.99
534.166	45873.19
534.365	46419.68
534.564	46191.98
534.762	45975.75
534.961	46473.74
535.159	45936.13
535.358	46459.67
535.556	46362.48
535.755	46359.33
535.953	45924.1
536.151	46513.36
536.35	46305.83
536.548	46292.5
536.747	46545.94
536.945	46331.01
537.143	46286.76
537.342	46342.86
537.54	46513.36
537.738	46610.73
537.937	46605.37
538.135	46280.28
538.333	46368.77
538.531	46447.27
538.73	46589.26
538.928	46361
539.126	46579.26
539.324	46862.88
539.522	46594.07
539.72	46617.4
539.919	46413.2
540.117	46601.48
540.315	46347.3
540.513	46421.35
540.711	46256.96
540.909	46193.09
541.107	46299.72
541.305	46405.61
541.503	46228.45
541.701	46256.96
541.899	46637.95
542.097	46122.37
542.295	46579.26
542.493	46379.51
542.691	46322.49
542.888	46329.34
543.086	46418.02
543.284	46875.46
543.482	46455.41
543.68	46333.79
543.878	46641.28
544.075	46241.59
544.273	46266.21
544.471	46104.23
544.669	46126.63
544.866	46173.84
545.064	46041.47
545.262	45996.67
545.459	46023.33
545.657	46018.89
545.855	45747.49
546.052	45921.51
546.25	46211.79
546.447	45664.92
546.645	45769.71
546.842	45760.64
547.04	45414.26
547.238	45913.92
547.435	45739.9
547.633	45449.44
547.83	45084.37
548.027	45190.63
548.225	45516.82
548.422	45691.21
548.62	44911.83
548.817	45710.47
549.014	45730.09
549.212	45730.09
549.409	45657.89
549.606	45584.4
549.804	45171.38
550.001	45251.91
550.198	45706.21
550.396	45124.54
550.593	45716.95
550.79	45111.95
550.987	45287.45
551.184	44787.06
551.382	45393.72
551.579	44839.63
551.776	44938.68
551.973	44770.58
552.17	44990.33
552.367	45145.09
552.564	44808.35
552.761	44834.26
552.958	44803.16
553.155	44617.67
553.353	44507.7
553.55	44698.75
553.746	44292.59
553.943	44811.49
554.14	44348.86
554.337	44186.88
554.534	44452.53
554.731	44132.08
554.928	44216.68
555.125	43963.8
555.322	43914.93
555.519	44001.75
555.715	43918.26
555.912	44026.19
556.109	43783.67
556.306	43793.12
556.503	43268.84
556.699	43343.07
556.896	42835.64
557.093	42980.23
557.289	42980.23
557.486	43154.8
557.683	43401.39
557.879	43251.81
558.076	43465.07
558.273	43609.66
558.469	43292.16
558.666	43073.9
558.862	43080.19
559.059	42916.54
559.255	42806.58
559.452	42965.23
559.648	42649.22
559.845	43047.61
560.041	42750.49
560.238	42783.99
560.434	42567.58
560.631	42390.97
560.827	42762.15
561.023	42313.96
561.22	42464.28
561.416	42277.86
561.612	42255.83
561.809	42008.87
562.005	41959.81
562.201	42070.15
562.398	42008.13
562.594	41702.49
562.79	41931.12
562.986	41712.11
563.182	41825.6
563.379	41802.08
563.575	41463.12
563.771	41444.05
563.967	41573.08
564.163	41107.68
564.359	41204.31
564.555	41324.64
564.751	40944.21
564.947	40936.25
565.144	40998.45
565.34	41048.81
565.536	41077.69
565.732	40648.93
565.928	40583.77
566.123	40531.56
566.319	40664.11
566.515	40468.07
566.711	40848.13
566.907	40600.06
567.103	40721.69
567.299	40426.23
567.495	40518.79
567.691	40036.35
567.886	40213.7
568.082	40259.61
568.278	40003.03
568.474	40119.1
568.669	40039.31
568.865	39940.64
569.061	39738.67
569.257	40050.24
569.452	39761.81
569.648	39687.57
569.844	39986.55
570.039	39617.04
570.235	40007.66
570.43	39587.79
570.626	39638.89
570.822	39203.28
571.017	39201.62
571.213	39331.95
571.408	39196.43
571.604	39567.24
571.799	39131.83
571.995	39308.99
572.19	39098.32
572.385	39107.2
572.581	39154.97
572.776	39130.34
572.972	39007.61
573.167	39186.99
573.362	38887.83
573.558	39035.19
573.753	38999.46
573.948	38921.34
574.144	38776.94
574.339	38995.76
574.534	38786.01
574.729	38458.89
574.925	38695.48
575.12	38412.8
575.315	38287.47
575.51	38455.56
575.705	38542.75
575.9	38279.14
576.096	38415.39
576.291	38015.33
576.486	38259.51
576.681	38004.78
576.876	38046.43
577.071	37688.95
577.266	37765.41
577.461	37570.84
577.656	37444.77
577.851	37599.35
578.046	37246.87
578.241	37518.64
578.436	37551.96
578.631	37405.9
578.826	37346.1
579.021	37369.98
579.215	37671.37
579.41	37641.75
579.605	37171.9
579.8	37154.12
579.995	37059.71
580.189	37001.39
580.384	36981.03
580.579	36550.8
580.774	36933.45
580.968	36489.52
581.163	36845.7
581.358	36515.44
581.552	36773.32
581.747	36795.16
581.942	36886.99
582.136	36648.54
582.331	36568.39
582.526	36309.39
582.72	36372.52
582.915	36192.02
583.109	36090.02
583.304	36162.4
583.498	36018.56
583.693	35975.43
583.887	36055.96
584.082	35946.73
584.276	36168.14
584.471	35398.57
584.665	36043.55
584.859	35565.56
585.054	35736.24
585.248	35308.97
585.442	35577.41
585.637	35251.77
585.831	35258.99
586.025	35425.6
586.22	35095.34
586.414	35224.37
586.608	35098.67
586.802	35001.85
586.997	34885.4
587.191	34723.6
587.385	34913.54
587.579	34526.26
587.773	34805.8
587.967	34702.87
588.162	34679.54
588.356	34636.78
588.55	34497.75
588.744	34221.91
588.938	34260.42
589.132	34093.43
589.326	34033.27
589.52	33897.76
589.714	33583.78
589.908	33874.62
590.102	33805.19
590.296	33764.1
590.49	33611.74
590.684	33462.52
590.877	33390.88
591.071	33126.34
591.265	33643.21
591.459	33151.7
591.653	33163.73
591.847	33219.45
592.04	32957.69
592.234	32857.35
592.428	33067.65
592.622	32821.62
592.815	33098.01
593.009	32864.01
593.203	32936.03
593.397	32605.21
593.59	32694.99
593.784	32386.2
593.977	32366.95
594.171	32404.71
594.365	32327.52
594.558	32048.35
594.752	32402.31
594.945	31960.04
595.139	32182.38
595.332	31873.59
595.526	31616.63
595.719	31564.8
595.913	31181.22
596.106	31332.83
596.3	31118.27
596.493	31301.73
596.687	31183.81
596.88	31197.32
597.073	31176.03
597.267	31114.2
597.46	30963.14
597.653	30763.2
597.847	30895.57
598.04	30408.13
598.233	30638.61
598.426	30308.16
598.62	30459.78
598.813	30452
599.006	30485.33
599.199	30698.96
599.392	30298.91
599.586	30006.04
599.779	29978.08
599.972	29831.28
600.165	29744.27
600.358	29508.97
600.551	29853.49
600.744	29520.45
600.937	29519.34
601.13	29483.43
601.323	29394.19
601.516	29134.46
601.709	29169.82
601.902	28775.32
602.095	28679.24
602.288	28660.91
602.481	28732.18
602.674	28535.21
602.867	28552.24
603.06	28276.22
603.252	28184.21
603.445	28250.3
603.638	27771.75
603.831	28225.31
604.024	27843.02
604.216	27978.17
604.409	27925.59
604.602	27743.43
604.795	28051.1
604.987	27759.53
605.18	27772.68
605.373	27778.78
605.565	27580.14
605.758	27505.54
605.951	27348.37
606.143	27101.96
606.336	27087.52
606.528	26698.02
606.721	26850.56
606.913	26686.73
607.106	26730.23
607.298	26654.7
607.491	26686.73
607.683	26477.35
607.876	26186.33
608.068	26093.95
608.261	26300.18
608.453	25825.33
608.646	25887.54
608.838	25662.61
609.03	25681.86
609.223	25679.82
609.415	26049.52
609.607	25578.01
609.8	25800.16
609.992	25373.26
610.184	25339.19
610.376	25362.15
610.569	25163.51
610.761	25188.87
610.953	25370.85
611.145	25196.65
611.337	25297.54
611.529	25117.6
611.722	25057.99
611.914	24764.01
612.106	24622.2
612.298	24748.09
612.49	24644.97
612.682	24496.31
612.874	24589.8
613.066	24442.26
613.258	24559.44
613.45	24529.64
613.642	24345.25
613.834	24127.36
614.026	24401.16
614.218	24008.51
614.41	23866.52
614.602	23793.95
614.793	23899.28
614.985	23886.14
615.177	23616.41
615.369	23375.38
615.561	23574.57
615.753	23404.44
615.944	23462.76
616.136	23464.79
616.328	23462.57
616.52	23353.72
616.711	23270.96
616.903	23325.58
617.095	23243.94
617.286	23104.72
617.478	23263.93
617.67	23162.48
617.861	23187.47
618.053	23459.98
618.244	23364.82
618.436	23361.68
618.627	23269.85
618.819	22969.39
619.01	23065.29
619.202	22737.99
619.393	22633.39
619.585	22584.33
619.776	22501.21
619.968	22489.36
620.159	22636.17
620.351	22525.28
620.542	22552.86
620.733	22464.56
620.925	22540.09
621.116	22336.26
621.307	22441.97
621.499	22211.49
621.69	22019.88
621.881	21917.51
622.072	22245.37
622.264	21951.39
622.455	22047.28
622.646	22183.9
622.837	22113.19
623.028	21957.12
623.22	21846.97
623.411	21774.04
623.602	21709.98
623.793	21473.95
623.984	21571.88
624.175	21487.64
624.366	21375.83
624.557	21204.03
624.748	21258.64
624.939	21286.41
625.13	20963.37
625.321	21238.84
625.512	21088.14
625.703	20802.12
625.894	20982.81
626.085	20689.94
626.276	20747.33
626.467	20550.17
626.658	20438.54
626.848	20387.63
627.039	20198.06
627.23	20337.09
627.421	20281.36
627.612	20366.89
627.802	20065.32
627.993	19879.83
628.184	19874.09
628.375	19996.45
628.565	19870.38
628.756	19637.31
628.947	19796.52
629.137	19576.59
629.328	19518.64
629.519	19330.37
629.709	19375.91
629.9	19296.68
630.09	19269.28
630.281	19260.39
630.471	18978.82
630.662	18997.14
630.852	18859.22
631.043	18719.08
631.233	18710.01
631.424	18593.75
631.614	18584.13
631.805	18358.27
631.995	18278.3
632.185	18119.28
632.376	18253.86
632.566	18111.32
632.756	18145.93
632.947	18020.79
633.137	17980.62
633.327	17882.31
633.518	17833.07
633.708	17855.84
633.898	17719.96
634.088	17495.03
634.279	17438.57
634.469	17344.52
634.659	17311.39
634.849	17104.6
635.039	17120.71
635.229	17042.58
635.42	17184.02
635.61	17087.2
635.8	17052.21
635.99	17038.7
636.18	16902.07
636.37	16650.49
636.56	16772.85
636.75	16459.99
636.94	16505.53
637.13	16333.55
637.32	16317.07
637.51	16326.33
637.7	16434.81
637.89	16243.76
638.079	16401.68
638.269	16192.3
638.459	16137.5
638.649	15966.07
638.839	15889.43
639.029	15904.24
639.218	15862.22
639.408	15628.4
639.598	15595.27
639.788	15500.85
639.977	15583.97
640.167	15350.16
640.357	15360.71
640.546	15191.14
640.736	15121.53
640.926	15120.79
641.115	15043.59
641.305	14905.12
641.495	14779.42
641.684	14779.42
641.874	14782.56
642.063	14710.55
642.253	14552.27
642.442	14603.92
642.632	14468.78
642.821	14360.48
643.011	14392.13
643.2	14198.86
643.39	14302.72
643.579	14221.82
643.768	14177.2
643.958	14101.48
644.147	14051.13
644.336	13905.25
644.526	13906.55
644.715	13636.08
644.904	13836.57
645.094	13654.96
645.283	13708.83
645.472	13528.52
645.661	13519.45
645.851	13488.53
646.04	13408.74
646.229	13386.9
646.418	13261.2
646.607	13204.92
646.796	13184.74
646.986	13015.17
647.175	13033.31
647.364	12850.77
647.553	12849.66
647.742	12853.36
647.931	12713.22
648.12	12628.44
648.309	12608.63
648.498	12462.19
648.687	12576.6
648.876	12469.04
649.065	12421.84
649.254	12222.27
649.443	12224.49
649.632	12139.15
649.82	12188.39
650.009	11980.68
650.198	12256.33
650.387	12041.4
650.576	12035.48
650.765	11969.02
650.953	11908.85
651.142	11832.76
651.331	11779.82
651.52	11777.78
651.708	11665.6
651.897	11544.15
652.086	11492.13
652.274	11368.84
652.463	11434.93
652.652	11213.52
652.84	11295.71
653.029	11175.01
653.217	11263.13
653.406	11241.29
653.594	11131.88
653.783	11141.13
653.972	10958.23
654.16	10816.42
654.349	10823.46
654.537	10777.73
654.725	10667.03
654.914	10561.13
655.102	10573.35
655.291	10514.67
655.479	10455.61
655.667	10468.94
655.856	10509.11
656.044	10417.29
656.232	10371.01
656.421	10305.85
656.609	10326.39
656.797	10104.43
656.986	10052.22
657.174	10005.02
657.362	10065.37
657.55	9954.29
657.738	9980.39
657.927	9910.42
658.115	9828.96
658.303	9717.7
658.491	9720.29
658.679	9631.25
658.867	9574.6
659.055	9514.99
659.243	9404.47
659.431	9384.29
659.619	9465.93
659.807	9364.85
659.995	9331.53
660.183	9338.75
660.371	9289.87
660.559	9218.97
660.747	9201.75
660.935	8964.24
661.123	9003.11
661.311	8885
661.499	8940.36
661.687	8772.63
661.875	8778.18
662.062	8668.59
662.25	8703.76
662.438	8652.67
662.626	8594.17
662.813	8425.89
663.001	8525.3
663.189	8416.08
663.377	8341.66
663.564	8348.51
663.752	8306.48
663.94	8257.8
664.127	8134.69
664.315	8052.12
664.502	8047.68
664.69	8033.05
664.878	8043.05
665.065	7975.48
665.253	7995.66
665.44	7940.67
665.628	8034.35
665.815	7920.68
666.003	7852.92
666.19	7753.51
666.378	7718.34
666.565	7625.03
666.752	7582.83
666.94	7584.86
667.127	7576.16
667.315	7477.3
667.502	7460.83
667.689	7425.28
667.877	7352.53
668.064	7243.86
668.251	7368.26
668.438	7103.72
668.626	7224.61
668.813	7122.42
669	7148.33
669.187	7134.82
669.374	7090.02
669.562	7057.25
669.749	7058.92
669.936	7035.78
670.123	6978.2
670.31	6838.8
670.497	6846.95
670.684	6797.34
670.871	6716.81
671.058	6611.47
671.245	6645.72
671.432	6583.52
671.619	6624.98
671.806	6619.24
671.993	6576.85
672.18	6521.31
672.367	6527.24
672.554	6403.57
672.741	6440.6
672.928	6316.19
673.115	6388.21
673.302	6300.83
673.488	6309.71
673.675	6261.4
673.862	6265.1
674.049	6154.95
674.235	6273.06
674.422	6191.97
674.609	6098.86
674.796	6072.38
674.982	6021.29
675.169	6012.96
675.356	6059.05
675.542	5885.59
675.729	5875.04
675.916	5801.73
676.102	5865.6
676.289	5737.49
676.475	5797.28
676.662	5696.02
676.848	5721.57
677.035	5639.37
677.221	5712.13
677.408	5685.47
677.594	5694.35
677.781	5639.93
677.967	5669.55
678.154	5567.54
678.34	5614.75
678.526	5463.32
678.713	5409.63
678.899	5346.13
679.085	5354.65
679.272	5326.14
679.458	5340.58
679.644	5288.19
679.831	5296.7
680.017	5240.98
680.203	5212.84
680.389	5211.92
680.576	5207.66
680.762	5085.47
680.948	5068.07
681.134	5049.75
681.32	5047.52
681.506	5051.23
681.692	5029.75
681.879	4978.84
682.065	4996.98
682.251	4896.09
682.437	4908.86
682.623	4836.3
682.809	4822.78
682.995	4772.8
683.181	4756.51
683.367	4661.72
683.553	4690.79
683.739	4569.9
683.924	4654.32
684.11	4560.09
684.296	4589.52
684.482	4562.68
684.668	4597.85
684.854	4526.02
685.04	4487.33
685.225	4506.22
685.411	4453.27
685.597	4406.25
685.783	4406.43
685.968	4349.23
686.154	4355.52
686.34	4280.18
686.526	4309.06
686.711	4272.4
686.897	4229.82
687.083	4257.04
687.268	4220.38
687.454	4132.45
687.639	4157.81
687.825	4085.79
688.01	4099.86
688.196	3991.75
688.382	4023.22
688.567	4029.7
688.752	4031.74
688.938	3920.11
689.123	3976.75
689.309	3910.85
689.494	3931.95
689.68	3862.9
689.865	3818.66
690.05	3845.5
690.236	3839.21
690.421	3758.12
690.606	3748.68
690.792	3721.28
690.977	3734.42
691.162	3670.93
691.348	3676.48
691.533	3655.19
691.718	3607.8
691.903	3507.65
692.089	3586.69
692.274	3512.09
692.459	3545.97
692.644	3512.83
692.829	3508.94
693.014	3435.45
693.199	3505.24
693.384	3461.36
693.569	3498.94
693.755	3391.39
693.94	3396.01
694.125	3322.15
694.31	3330.48
694.495	3281.79
694.68	3265.13
694.864	3232.18
695.049	3197.19
695.234	3196.08
695.419	3199.04
695.604	3145.35
695.789	3156.28
695.974	3108.33
696.159	3190.89
696.344	3070.01
696.528	3076.3
696.713	3071.12
696.898	3049.27
697.083	3033.35
697.267	3019.28
697.452	2986.7
697.637	2997.81
697.822	2933.75
698.006	2938.57
698.191	2956.71
698.375	2981.15
698.56	2920.43
698.745	2898.77
698.929	2861.56
699.114	2875.25
699.298	2794.17
699.483	2800.09
699.668	2723.27
699.852	2781.21
700.037	2700.68
700.221	2770.29
700.405	2719.19
700.59	2788.99
700.774	2677.54
700.959	2678.47
701.143	2717.71
701.328	2672.91
701.512	2624.04
701.696	2605.16
701.881	2594.42
702.065	2640.33
702.249	2547.4
702.433	2545.17
702.618	2497.04
702.802	2560.54
702.986	2477.05
703.17	2476.68
703.355	2501.3
703.539	2462.98
703.723	2459.83
703.907	2414.11
704.091	2422.07
704.275	2389.3
704.46	2353.2
704.644	2398.74
704.828	2345.05
705.012	2320.8
705.196	2291.74
705.38	2326.17
705.564	2312.66
705.748	2311.92
705.932	2254.9
706.116	2295.25
706.3	2238.24
706.484	2230.83
706.668	2207.5
706.851	2230.28
707.035	2200.47
707.219	2191.58
707.403	2149.75
707.587	2167.89
707.771	2139.56
707.954	2154
708.138	2079.95
708.322	2105.13
708.506	2065.51
708.689	2100.5
708.873	2012.57
709.057	2058.11
709.241	2052.74
709.424	2047.56
709.608	1966.47
709.792	1993.68
709.975	1988.87
710.159	1985.35
710.342	1952.4
710.526	1950.92
710.709	1964.99
710.893	1957.03
711.077	1925.37
711.26	1928.71
711.443	1883.35
711.627	1918.34
711.81	1874.46
711.994	1858.54
712.177	1855.58
712.361	1867.98
712.544	1814.67
712.727	1840.03
712.911	1831.33
713.094	1816.15
713.277	1776.53
713.461	1804.12
713.644	1749.69
713.827	1765.24
714.011	1702.67
714.194	1741.36
714.377	1690.45
714.56	1706
714.743	1659.9
714.927	1680.82
715.11	1642.13
715.293	1670.27
715.476	1663.97
715.659	1665.46
715.842	1632.32
716.025	1661.01
716.208	1609.36
716.391	1627.51
716.575	1577.15
716.758	1586.59
716.941	1544.01
717.124	1552.9
717.306	1506.8
717.489	1551.97
717.672	1468.67
717.855	1518.28
718.038	1501.06
718.221	1486.81
718.404	1486.62
718.587	1458.48
718.77	1428.86
718.952	1422.2
719.135	1424.61
719.318	1386.66
719.501	1397.21
719.684	1390.73
719.866	1400.17
720.049	1395.17
720.232	1365
720.414	1383.32
720.597	1349.45
720.78	1393.88
720.962	1333.15
721.145	1338.71
721.328	1302.42
721.51	1352.04
721.693	1293.17
721.875	1312.98
722.058	1257.25
722.24	1301.5
722.423	1311.31
722.605	1292.61
722.788	1272.06
722.97	1279.65
723.153	1249.85
723.335	1255.22
723.518	1230.22
723.7	1226.52
723.882	1237.26
724.065	1220.97
724.247	1202.46
724.429	1223.93
724.612	1197.27
724.794	1211.16
724.976	1150.62
725.159	1188.94
725.341	1128.59
725.523	1180.43
725.705	1148.58
725.888	1148.77
726.07	1126.37
726.252	1158.77
726.434	1142.1
726.616	1148.4
726.798	1114.34
726.98	1118.04
727.162	1097.3
727.345	1126.18
727.527	1072.87
727.709	1086.01
727.891	1056.95
728.073	1065.28
728.255	1040.1
728.437	1068.24
728.619	1029.73
728.801	1020.66
728.982	1001.59
729.164	1040.29
729.346	1002.33
729.528	1031.77
729.71	1006.41
729.892	1014.74
730.074	1019
730.255	1025.48
730.437	995.3
730.619	985.49
730.801	963.46
730.983	996.04
731.164	938.65
731.346	949.39
731.528	939.76
731.709	956.24
731.891	929.02
732.073	935.13
732.254	935.69
732.436	941.8
732.617	930.88
732.799	940.32
732.981	918.66
733.162	910.33
733.344	881.45
733.525	909.96
733.707	870.71
733.888	854.79
734.07	841.83
734.251	874.41
734.433	858.12
734.614	859.23
734.795	821.1
734.977	866.45
735.158	807.4
735.34	863.12
735.521	795.36
735.702	808.51
735.883	787.96
736.065	820.36
736.246	793.33
736.427	818.87
736.609	777.41
736.79	792.59
736.971	782.22
737.152	806.66
737.333	752.78
737.514	788.88
737.696	775
737.877	765.74
738.058	734.27
738.239	773.89
738.42	749.08
738.601	738.34
738.782	754.64
738.963	752.6
739.144	706.13
739.325	767.41
739.506	693.91
739.687	745.38
739.868	697.25
740.049	739.27
740.23	670.59
740.411	711.13
740.592	687.62
740.773	690.21
740.953	685.03
741.134	700.21
741.315	662.63
741.496	675.4
741.677	647.82
741.857	670.22
742.038	637.45
742.219	662.07
742.4	630.23
742.58	634.3
742.761	632.82
742.942	653.37
743.122	581.36
743.303	615.24
743.484	611.53
743.664	645.41
743.845	619.68
744.025	655.96
744.206	620.23
744.386	630.42
744.567	609.31
744.748	625.79
744.928	601.54
745.108	588.39
745.289	581.54
745.469	598.02
745.65	583.02
745.83	607.46
746.011	597.09
746.191	611.53
746.371	562.1
746.552	558.59
746.732	585.43
746.912	581.54
747.093	556.92
747.273	572.66
747.453	557.29
747.633	560.99
747.814	552.85
747.994	548.41
748.174	559.51
748.354	565.81
748.534	529.52
748.715	569.88
748.895	546.92
749.075	554.88
749.255	538.59
749.435	553.77
749.615	534.89
749.795	568.77
749.975	543.78
750.155	569.14
750.335	544.15
750.515	542.11
750.695	523.78
750.875	550.07
751.055	500.09
751.235	543.04
751.415	501.94
751.595	533.22
751.775	526.75
751.954	553.22
752.134	549.15
752.314	502.86
752.494	515.08
752.674	538.78
752.854	493.98
753.033	511.57
753.213	490.09
753.393	495.27
753.572	494.72
753.752	504.9
753.932	495.46
754.111	517.49
754.291	491.57
754.471	507.86
754.65	481.94
754.83	539.52
755.01	467.13
755.189	506.2
755.369	484.72
755.548	504.53
755.728	479.54
755.907	483.43
756.087	462.14
756.266	486.02
756.446	439.92
756.625	494.35
756.804	465.84
756.984	464.54
757.163	470.1
757.343	484.91
757.522	469.73
757.701	463.99
757.881	440.48
758.06	456.77
758.239	451.4
758.418	458.62
758.598	442.51
758.777	483.8
758.956	435.85
759.135	472.69
759.315	430.66
759.494	459.91
759.673	435.11
759.852	457.88
760.031	412.71
760.21	433.07
760.389	400.12
760.568	441.77
760.748	389.01
760.927	444.55
761.106	416.04
761.285	437.14
761.464	414.74
761.643	447.14
761.822	403.27
762	403.27
762.179	420.67
762.358	399.93
762.537	381.98
762.716	386.05
762.895	369.02
763.074	372.35
763.253	373.83
763.431	380.31
763.61	346.06
763.789	379.76
763.968	339.77
764.147	363.83
764.325	340.32
764.504	373.09
764.683	340.32
764.861	364.39
765.04	339.4
765.219	375.5
765.397	335.7
765.576	376.24
765.755	324.22
765.933	353.65
766.112	306.08
766.29	326.99
766.469	323.85
766.647	333.1
766.826	290.89
767.004	339.58
767.183	319.22
767.361	330.88
767.54	287.01
767.718	334.77
767.897	285.71
768.075	337.36
768.253	297.56
768.432	313.3
768.61	278.31
768.788	304.41
768.967	294.04
769.145	300.34
769.323	286.08
769.501	309.78
769.68	260.9
769.858	302.37
770.036	272.38
770.214	267.2
770.393	283.49
770.571	281.08
770.749	276.83
770.927	263.13
771.105	286.08
771.283	261.09
771.461	248.5
771.639	277.38
771.817	247.76
771.995	264.79
772.173	230.91
772.351	280.53
772.529	226.47
772.707	254.61
772.885	235.17
773.063	292.01
773.241	235.36
773.419	260.53
773.597	219.44
773.775	242.58
773.953	234.06
774.131	232.95
774.308	225.18
774.486	238.69
774.664	244.06
774.842	255.91
775.02	208.33
775.197	245.72
775.375	232.39
775.553	216.1
775.73	196.3
775.908	242.21
776.086	210.55
776.263	214.25
776.441	222.4
776.619	221.84
776.796	214.25
776.974	204.81
777.151	205.55
777.329	223.14
777.506	216.66
777.684	211.66
777.861	205.74
778.039	204.26
778.216	200.37
778.394	189.82
778.571	203.33
778.749	192.96
778.926	191.48
779.103	206.85
779.281	190.93
779.458	206.29
779.635	161.31
779.813	193.15
779.99	170.38
780.167	193.15
780.345	189.45
780.522	187.96
780.699	161.49
780.876	176.49
781.054	152.24
781.231	182.23
781.408	168.9
781.585	186.85
781.762	160.38
781.939	198.7
782.116	159.46
782.294	189.26
782.471	149.09
782.648	163.34
782.825	151.68
783.002	157.23
783.179	169.08
783.356	162.6
783.533	151.87
783.71	178.89
783.887	144.46
784.064	162.97
784.24	153.35
784.417	155.01
784.594	161.31
784.771	159.64
784.948	119.47
785.125	136.31
785.302	150.57
785.478	149.46
785.655	133.35
785.832	158.34
786.009	131.87
786.185	169.27
786.362	132.61
786.539	146.13
786.715	114.28
786.892	151.12
787.069	125.76
787.245	154.27
787.422	147.24
787.599	160.2
787.775	114.47
787.952	124.47
788.128	119.28
788.305	142.42
788.481	121.32
788.658	148.9
788.834	117.06
789.011	152.42
789.187	122.43
789.364	149.27
789.54	110.4
789.717	141.13
789.893	109.47
790.069	131.13
790.246	120.95
790.422	162.42
790.598	121.69
790.775	115.21
790.951	114.84
791.127	117.8
791.304	119.47
791.48	122.24
791.656	122.06
791.832	115.77
792.008	109.84
792.185	113.54
792.361	95.77
792.537	146.31
792.713	110.95
792.889	100.03
793.065	99.84
793.241	116.69
793.417	106.51
793.593	107.25
793.769	117.25
793.945	120.39
794.121	108.73
794.297	115.21
794.473	99.84
794.649	113.17
794.825	112.43
795.001	105.77
795.177	100.21
795.353	122.62
795.529	89.48
795.705	97.07
795.881	88
796.056	123.73
796.232	63.75
796.408	96.88
796.584	97.07
796.76	93.55
796.935	85.78
797.111	86.89
797.287	76.15
797.462	92.62
797.638	88
797.814	106.51
797.989	90.4
798.165	107.99
798.341	83.55
798.516	95.22
798.692	88
798.867	104.84
799.043	73.74
799.218	100.96
799.394	61.15
799.569	98.73
799.745	85.78
799.92	116.14
800.096	74.48
800.271	78.18
800.447	77.44
800.622	80.96
800.797	68.19
800.973	87.26
801.148	74.48
801.323	104.29
801.499	83.37
801.674	67.82
801.849	50.42
802.025	79.3
802.2	87.81
802.375	75.96
802.55	92.99
802.725	83.92
802.901	100.03
803.076	76.7
803.251	74.11
803.426	101.7
803.601	41.16
803.776	85.03
803.951	79.85
804.127	71.34
804.302	82.07
804.477	83.92
804.652	70.04
804.827	49.86
805.002	60.23
805.177	70.22
805.352	65.41
805.526	67.82
805.701	61.34
805.876	61.89
806.051	58.93
806.226	68.19
806.401	74.11
806.576	63.19
806.751	49.31
806.925	74.48
807.1	63.19
807.275	52.08
807.45	62.26
807.625	99.1
807.799	52.64
807.974	61.71
808.149	50.05
808.323	67.08
808.498	67.26
808.673	84.11
808.847	65.6
809.022	60.6
809.197	61.52
809.371	76.15
809.546	47.82
809.72	63.56
809.895	68.93
810.069	56.53
810.244	41.9
810.418	59.49
810.593	52.27
810.767	79.3
810.942	31.16
811.116	72.08
811.29	50.79
811.465	56.34
811.639	65.41
811.814	70.96
811.988	47.27
812.162	51.16
812.337	39.68
812.511	63.37
812.685	53.38
812.859	58.56
813.034	67.08
813.208	60.97
813.382	26.53
813.556	36.16
813.73	33.2
813.905	35.42
814.079	51.34
814.253	54.67
814.427	46.53
814.601	45.23
814.775	31.72
814.949	59.49
815.123	59.3
815.297	67.08
815.471	40.05
815.645	49.86
815.819	50.97
815.993	56.53
816.167	68.74
816.341	57.64
816.515	38.2
816.689	36.72
816.863	42.64
817.037	49.49
817.21	41.72
817.384	66.89
817.558	44.12
817.732	57.08
817.906	45.23
818.079	63.75
818.253	25.98
818.427	42.83
818.601	20.06
818.774	27.09
818.948	22.65
819.122	66.52
819.295	46.53
819.469	69.11
819.643	29.13
819.816	60.6
819.99	58.93
820.163	57.08
820.337	48.01
820.511	54.3
820.684	52.82
820.858	35.79
821.031	53.93
821.205	39.86
821.378	37.27
821.551	43.2
821.725	33.57
821.898	42.27
822.072	20.06
822.245	47.27
822.418	14.13
822.592	11.54
822.765	5.43
822.938	49.49
823.112	20.24
823.285	47.64
823.458	28.57
823.631	45.97
823.805	42.83
823.978	49.49
824.151	37.09
824.324	29.13
824.497	22.09
824.671	38.2
824.844	20.8
825.017	46.34
825.19	27.09
825.363	31.16
825.536	27.09
825.709	48.75
825.882	29.13
826.055	61.15
826.228	13.02
826.401	26.35
826.574	24.13
826.747	31.72
826.92	33.2
827.093	37.83
827.266	2.47
827.439	32.09
827.612	32.27
827.785	35.79
827.957	21.54
828.13	45.97
828.303	51.53
828.476	40.42
828.649	20.61
828.821	56.53
828.994	23.39
829.167	30.42
829.34	34.5
829.512	18.76
829.685	27.65
829.858	40.79
830.03	22.46
830.203	42.46
830.375	43.38
830.548	32.09
830.721	25.05
830.893	38.2
831.066	14.13
831.238	66.71
831.411	11.17
831.583	29.68
831.756	35.42
831.928	27.09
832.101	26.16
832.273	36.35
832.446	33.2
832.618	30.24
832.79	23.76
832.963	44.31
833.135	21.35
833.307	30.61
833.48	3.95
833.652	55.97
833.824	34.12
833.997	24.13
834.169	43.38
834.341	47.45
834.513	24.5
834.686	23.76
834.858	30.98
835.03	31.72
835.202	23.76
835.374	44.12
835.546	14.32
835.718	6.36
835.891	14.69
836.063	20.61
836.235	25.05
836.407	37.46
836.579	23.39
836.751	3.76
836.923	28.94
837.095	37.64
837.267	21.17
837.439	30.98
837.611	28.76
837.782	23.57
837.954	17.09
838.126	4.13
838.298	18.57
838.47	37.46
838.642	35.05
838.814	26.9
838.985	19.69
839.157	9.5
839.329	20.43
839.501	31.9
839.672	13.21
839.844	50.42
840.016	35.79
840.188	36.16
840.359	38.75
840.531	21.35
840.702	15.98
840.874	8.76
841.046	20.43
841.217	18.39
841.389	22.28
841.56	17.65
841.732	3.95
841.903	41.72
842.075	7.28
842.246	14.5
842.418	47.64
842.589	30.24
842.761	18.94
842.932	40.42
843.104	2.47
843.275	34.87
843.446	14.87
843.618	20.8
843.789	27.65
843.96	15.98
844.132	2.1
844.303	35.98
844.474	-2.34
844.646	12.28
844.817	37.64
844.988	19.13
845.159	20.61
845.331	33.94
845.502	38.94
845.673	13.58
845.844	12.65
846.015	39.49
846.186	3.02
846.357	12.65
846.528	-11.79
846.7	27.28
846.871	8.21
847.042	28.94
847.213	26.72
847.384	6.54
847.555	2.84
847.726	31.53
847.897	30.24
848.067	9.5
848.238	19.13
848.409	28.76
848.58	13.58
848.751	13.76
848.922	0.62
849.093	11.54
849.264	18.02
849.434	19.31
849.605	14.32
849.776	27.65
849.947	18.39
850.117	25.61
850.288	3.58
850.459	6.17
850.63	8.21
850.8	30.42
850.971	12.47
851.142	28.76
851.312	-13.45
851.483	7.84
851.653	-2.9
851.824	17.83
851.995	7.65
852.165	18.94
852.336	-11.42
852.506	27.28
852.677	10.06
852.847	25.79
853.018	-0.86
853.188	15.8
853.358	20.24
853.529	13.02
853.699	2.47
853.87	5.43
854.04	1.54
854.21	25.98
854.381	-0.68
854.551	23.57
854.721	-7.71
854.892	13.95
855.062	20.24
855.232	6.54
855.402	4.69
855.573	15.43
855.743	-10.49
855.913	20.43
856.083	20.06
856.253	23.02
856.423	10.06
856.594	-0.86
856.764	23.39
856.934	-0.86
857.104	23.39
857.274	26.9
857.444	2.28
857.614	25.98
857.784	-8.82
857.954	25.05
858.124	17.65
858.294	29.87
858.464	5.62
858.634	13.95
858.804	3.76
858.974	2.1
859.143	6.73
859.313	11.91
859.483	-2.16
859.653	12.84
859.823	-2.72
859.993	0.99
860.162	2.65
860.332	2.47
860.502	17.09
860.672	15.8
860.841	-0.86
861.011	26.9
861.181	-7.16
861.35	20.06
861.52	3.21
861.69	31.72
861.859	-6.42
862.029	33.2
862.198	-7.16
862.368	26.72
862.538	-13.08
862.707	9.5
862.877	21.35
863.046	3.39
863.216	-2.72
863.385	10.24
863.555	5.8
863.724	20.61
863.893	2.1
864.063	7.47
864.232	18.39
864.402	30.98
864.571	-1.42
864.74	28.02
864.91	-9.56
865.079	15.06
865.248	8.95
865.418	22.65
865.587	8.39
865.756	10.43
865.925	-15.12
866.094	15.43
866.264	13.02
866.433	8.21
866.602	10.61
866.771	25.79
866.94	28.57
867.109	-5.12
867.278	6.54
867.448	17.83
867.617	3.76
867.786	30.61
867.955	-28.45
868.124	28.57
868.293	-12.53
868.462	8.58
868.631	-3.46
868.8	13.21
868.969	26.9
869.137	7.84
869.306	-6.97
869.475	29.31
869.644	0.06
869.813	14.5
869.982	-9.94
870.151	25.24
870.319	6.73
870.488	-4.57
870.657	12.28
870.826	16.91
870.995	-16.97
871.163	17.09
871.332	-19.56
871.501	11.54
871.669	-22.52
871.838	14.87
872.007	-3.09
872.175	17.46
872.344	-9.75
872.512	9.5
872.681	25.05
872.85	0.99
873.018	-7.53
873.187	14.32
873.355	21.91
873.524	18.57
873.692	-22.15
873.861	15.24
874.029	27.09
874.197	-2.72
874.366	10.43
874.534	1.36
874.703	2.47
874.871	5.99
875.039	-19.38
875.208	0.8
875.376	20.43
875.544	23.02
875.713	-10.12
875.881	16.35
876.049	-4.94
876.217	28.57
876.386	1.36
876.554	6.73
876.722	8.95
876.89	8.21
877.058	21.35
877.226	20.98
877.395	13.58
877.563	24.5
877.731	1.17
877.899	14.69
878.067	-18.08
878.235	9.13
878.403	-10.31
878.571	-9.19
878.739	1.17
878.907	-6.42
879.075	17.83
879.243	24.31
879.411	-1.97
879.579	-2.53
879.747	-11.23
879.914	10.98
880.082	-4.57
880.25	-4.2
880.418	1.17
880.586	8.02
880.754	8.02
880.921	13.21
881.089	10.98
881.257	-22.71
881.425	-5.68
881.592	17.46
881.76	-4.01
881.928	39.12
882.095	-14.93
882.263	13.02
882.431	-11.23
882.598	39.86
882.766	-4.38
882.933	24.31
883.101	-18.08
883.269	1.17
883.436	1.91
883.604	1.17
883.771	4.69
883.939	13.76
884.106	6.17
884.273	-8.82
884.441	-10.31
884.608	8.76
884.776	-16.6
884.943	13.76
885.11	-6.23
885.278	16.54
885.445	-19.38
885.613	21.54
885.78	-3.46
885.947	3.02
886.114	2.28
886.282	3.76
886.449	0.06
886.616	5.99
886.783	-14.56
886.951	2.28
887.118	-16.41
887.285	6.36
887.452	13.58
887.619	3.02
887.786	2.84
887.953	4.32
888.12	-19.56
888.287	27.83
888.455	-8.45
888.622	3.02
888.789	-29
888.956	11.35
889.123	-15.67
889.29	15.24
889.456	-0.31
889.623	-8.27
889.79	-1.42
889.957	9.87
890.124	-22.89
890.291	-1.05
890.458	4.32
890.625	15.61
890.791	-11.23
890.958	14.69
891.125	6.54
891.292	7.65
891.459	-4.57
891.625	-11.05
891.792	-26.97
891.959	12.84
892.125	3.58
892.292	1.54
892.459	15.43
892.625	44.68
892.792	30.98
892.959	12.84
893.125	2.84
893.292	7.84
893.458	7.84
893.625	11.35
893.791	12.84
893.958	-2.9
894.124	-9.56
894.291	6.36
894.457	2.1
894.624	4.5
894.79	-9.01
894.957	7.1
895.123	-9.94
895.289	17.65
895.456	-11.97
895.622	9.69
895.788	-4.94
895.955	-12.53
896.121	-15.49
896.287	2.65
896.454	-13.08
896.62	10.8
896.786	-9.94
896.952	8.76
897.119	6.54
897.285	28.57
897.451	-13.82
897.617	8.21
897.783	0.99
897.949	-4.2
898.115	-14.93
898.281	-4.01
898.448	-20.86
898.614	-12.71
898.78	-3.64
898.946	9.32
899.112	10.24
899.278	-7.34
899.444	-4.01
899.61	3.58
899.775	-22.89
899.941	12.47
900.107	-13.45
900.273	1.54
900.439	-5.86
900.605	1.54
900.771	-9.01
900.937	31.16
901.102	0.8
901.268	9.5
901.434	-0.49
901.6	-7.34
901.766	-15.67
901.931	9.5
902.097	-12.16
902.263	14.87
902.428	10.06
902.594	8.39
902.76	-15.12
902.925	3.39
903.091	-24.37
903.256	1.17
903.422	-12.16
903.588	7.65
903.753	-5.49
903.919	0.43
904.084	2.47
904.25	13.58
904.415	-17.16
904.581	9.32
904.746	-5.49
904.912	12.28
905.077	-12.34
905.242	16.35
905.408	-17.71
905.573	8.95
905.738	-7.71
905.904	10.61
906.069	10.61
