Data from FLMT087451__25__14-20-14-026.txt Node

Date: Tue Jun 04 14:20:14 JST 2024
User: power
Spectrometer: FLMT08745
Trigger mode: 0
Integration Time (sec): 1.000000E-3
Scans to average: 11
Electric dark correction enabled: true
Nonlinearity correction enabled: false
Boxcar width: 0
XAxis mode: Wavelengths
Number of Pixels in Spectrum: 3648
>>>>>Begin Spectral Data<<<<<
194.923	16.91
195.148	16.91
195.372	16.91
195.597	-6.42
195.821	-6.79
196.046	-25.67
196.271	11.91
196.495	20.06
196.72	13.95
196.944	-18.82
197.169	16.91
197.393	-0.12
197.618	-6.97
197.842	0.06
198.067	-17.16
198.291	15.06
198.516	-9.19
198.74	-2.53
198.964	8.02
199.189	7.47
199.413	2.65
199.637	-15.86
199.862	8.95
200.086	-17.9
200.31	3.21
200.535	-17.34
200.759	14.13
200.983	-18.08
201.207	7.28
201.432	-9.75
201.656	-6.23
201.88	8.58
202.104	-15.3
202.328	-14.01
202.552	17.09
202.777	-20.12
203.001	-2.16
203.225	-16.41
203.449	-6.23
203.673	-14.19
203.897	1.17
204.121	-16.23
204.345	-4.01
204.569	-36.41
204.793	-12.16
205.017	-31.59
205.241	14.32
205.465	-7.34
205.689	5.43
205.912	-18.27
206.136	9.13
206.36	-6.42
206.584	0.43
206.808	-3.09
207.032	3.39
207.255	-11.05
207.479	8.58
207.703	0.8
207.927	-16.6
208.15	-6.05
208.374	-8.64
208.598	-9.01
208.822	5.06
209.045	-24
209.269	-24.93
209.492	-33.82
209.716	-20.67
209.94	5.06
210.163	-18.08
210.387	-19.19
210.61	0.06
210.834	13.02
211.057	-16.04
211.281	-1.79
211.504	18.76
211.728	-24
211.951	8.76
212.175	10.06
212.398	-11.23
212.622	-8.45
212.845	-2.53
213.068	2.84
213.292	-12.71
213.515	-9.38
213.738	13.39
213.962	-11.6
214.185	-0.68
214.408	-32.52
214.631	-28.82
214.855	-20.3
215.078	17.28
215.301	-6.97
215.524	8.39
215.747	-27.71
215.971	6.54
216.194	-2.16
216.417	4.32
216.64	-8.64
216.863	17.65
217.086	-7.9
217.309	1.36
217.532	2.84
217.755	-26.97
217.978	-5.12
218.201	3.58
218.424	-3.09
218.647	-4.57
218.87	4.5
219.093	6.17
219.316	-6.6
219.539	-9.01
219.762	4.5
219.985	2.47
220.207	-19.93
220.43	-11.23
220.653	-11.97
220.876	9.87
221.099	-18.27
221.321	-13.82
221.544	-32.52
221.767	12.84
221.99	-21.04
222.212	18.94
222.435	-27.71
222.658	5.8
222.88	-7.16
223.103	8.95
223.326	2.84
223.548	27.28
223.771	-13.82
223.993	-2.16
224.216	-14.93
224.438	-6.05
224.661	3.21
224.883	-9.01
225.106	-30.11
225.328	-0.86
225.551	-11.05
225.773	28.39
225.996	-15.86
226.218	-8.45
226.44	-19.01
226.663	-4.38
226.885	-2.34
227.108	-6.97
227.33	-22.34
227.552	4.69
227.774	-4.57
227.997	-3.27
228.219	-13.64
228.441	17.09
228.663	-10.86
228.886	30.24
229.108	-8.08
229.33	-2.53
229.552	-9.38
229.774	-8.08
229.996	-12.53
230.219	-9.56
230.441	-23.82
230.663	-21.78
230.885	-13.08
231.107	-0.31
231.329	-25.86
231.551	20.06
231.773	13.95
231.995	-9.01
232.217	-22.34
232.439	5.62
232.661	-13.82
232.883	14.69
233.105	-12.34
233.326	15.06
233.548	-7.9
233.77	-1.97
233.992	17.09
234.214	12.09
234.436	-1.42
234.657	17.09
234.879	-12.53
235.101	3.95
235.323	-1.6
235.544	22.28
235.766	-18.27
235.988	6.54
236.21	-23.26
236.431	0.25
236.653	0.62
236.874	1.36
237.096	-10.86
237.318	-12.34
237.539	-14.75
237.761	6.36
237.982	1.73
238.204	32.64
238.425	-14.75
238.647	2.28
238.868	-21.23
239.09	-5.86
239.311	-10.12
239.533	35.24
239.754	6.91
239.975	11.35
240.197	5.8
240.418	2.28
240.64	-11.05
240.861	14.13
241.082	-8.45
241.304	0.43
241.525	-11.05
241.746	5.06
241.967	-4.38
242.189	-9.56
242.41	-12.34
242.631	-1.23
242.852	-24.75
243.073	13.76
243.294	-22.15
243.516	3.58
243.737	12.84
243.958	0.8
244.179	-7.16
244.4	14.32
244.621	-25.3
244.842	19.69
245.063	7.65
245.284	-4.94
245.505	-30.11
245.726	-4.2
245.947	1.91
246.168	1.91
246.389	-11.79
246.61	3.58
246.831	-5.86
247.052	-8.45
247.272	-8.08
247.493	-20.12
247.714	-5.49
247.935	-9.75
248.156	13.95
248.376	13.21
248.597	-1.6
248.818	0.8
249.039	-42.15
249.259	3.76
249.48	13.95
249.701	-0.49
249.921	-12.9
250.142	22.28
250.363	-13.82
250.583	10.8
250.804	11.72
251.025	23.57
251.245	-16.78
251.466	-1.97
251.686	10.06
251.907	1.54
252.127	-27.52
252.348	-17.53
252.568	-1.42
252.789	-5.31
253.009	-4.01
253.23	-12.71
253.45	-26.97
253.67	23.57
253.891	-20.12
254.111	-6.79
254.331	-6.42
254.552	3.21
254.772	-15.86
254.992	0.99
255.213	-10.68
255.433	8.58
255.653	-11.6
255.873	-5.86
256.093	-14.56
256.314	7.1
256.534	-16.04
256.754	4.32
256.974	-18.45
257.194	5.06
257.414	-3.64
257.634	8.21
257.855	-9.38
258.075	9.13
258.295	2.84
258.515	4.69
258.735	-13.64
258.955	14.32
259.175	11.91
259.395	5.99
259.615	-10.12
259.835	-13.27
260.054	-16.41
260.274	-17.71
260.494	1.17
260.714	-13.27
260.934	-25.3
261.154	2.84
261.374	1.36
261.593	3.02
261.813	-10.68
262.033	-2.53
262.253	-14.19
262.472	3.02
262.692	-16.23
262.912	12.84
263.132	-0.49
263.351	-16.97
263.571	5.8
263.791	-6.6
264.01	8.76
264.23	-8.08
264.449	-34.74
264.669	3.76
264.888	-16.04
265.108	-10.12
265.328	-12.53
265.547	32.09
265.767	-0.49
265.986	8.76
266.205	-10.86
266.425	15.06
266.644	-16.04
266.864	2.1
267.083	-19.01
267.303	24.5
267.522	-25.86
267.741	6.73
267.961	-24.56
268.18	-18.08
268.399	-23.63
268.618	-0.12
268.838	-9.01
269.057	10.61
269.276	-11.05
269.495	-4.57
269.715	-14.93
269.934	3.58
270.153	-8.45
270.372	-11.05
270.591	-14.01
270.81	12.47
271.029	-20.3
271.249	10.43
271.468	-16.23
271.687	-10.68
271.906	-6.6
272.125	-0.49
272.344	-11.6
272.563	12.09
272.782	-2.72
273.001	11.91
273.22	-18.82
273.439	-1.42
273.657	-14.93
273.876	8.02
274.095	-14.93
274.314	5.25
274.533	-12.53
274.752	0.25
274.971	-16.41
275.189	-15.3
275.408	-20.12
275.627	19.87
275.846	-30.67
276.064	-7.34
276.283	-1.23
276.502	18.2
276.72	-6.6
276.939	8.02
277.158	-5.31
277.376	5.43
277.595	-5.49
277.814	-1.97
278.032	2.47
278.251	-14.19
278.469	-11.23
278.688	5.8
278.906	-41.96
279.125	-10.12
279.343	-17.16
279.562	-16.97
279.78	-6.05
279.999	-1.97
280.217	-8.45
280.435	0.8
280.654	4.69
280.872	-7.16
281.091	-14.38
281.309	0.8
281.527	-11.42
281.746	-3.64
281.964	-14.93
282.182	-18.27
282.4	-2.34
282.619	-19.19
282.837	-19.93
283.055	3.58
283.273	-19.56
283.491	8.58
283.71	-19.93
283.928	-13.27
284.146	-11.05
284.364	-9.38
284.582	-6.97
284.8	-22.89
285.018	-16.6
285.236	-10.86
285.454	12.28
285.672	12.09
285.89	-8.08
286.108	3.95
286.326	-4.57
286.544	15.24
286.762	-30.48
286.98	7.65
287.198	-10.49
287.416	9.5
287.634	-6.42
287.851	-0.68
288.069	-13.64
288.287	-9.56
288.505	-3.83
288.723	-5.86
288.94	-27.71
289.158	-0.49
289.376	-14.75
289.594	-16.6
289.811	1.73
290.029	6.91
290.247	-16.97
290.464	-3.46
290.682	-34.93
290.9	-4.57
291.117	-11.79
291.335	-2.16
291.552	-10.68
291.77	5.99
291.987	-15.67
292.205	-7.34
292.422	-8.82
292.64	0.99
292.857	12.47
293.075	-6.42
293.292	-8.64
293.51	-4.75
293.727	-23.63
293.945	16.35
294.162	1.54
294.379	5.25
294.597	-31.78
294.814	7.65
295.031	0.06
295.249	-16.23
295.466	-16.23
295.683	-18.64
295.9	9.87
296.118	-17.53
296.335	-11.6
296.552	38.2
296.769	-3.46
296.986	-4.01
297.204	-14.01
297.421	-9.19
297.638	-18.64
297.855	0.25
298.072	-3.27
298.289	2.84
298.506	-15.3
298.723	-6.42
298.94	-16.6
299.157	-12.16
299.374	-7.71
299.591	-12.71
299.808	-29.19
300.025	9.32
300.242	-16.78
300.459	-2.34
300.676	-26.41
300.893	-11.23
301.109	-1.05
301.326	-15.3
301.543	-24.75
301.76	-14.56
301.977	8.58
302.193	-11.6
302.41	-15.3
302.627	3.21
302.844	-8.45
303.06	-4.01
303.277	-23.26
303.494	-23.08
303.71	-23.08
303.927	3.95
304.144	-21.23
304.36	12.09
304.577	-17.34
304.793	8.58
305.01	-21.41
305.227	2.84
305.443	-10.12
305.66	7.1
305.876	-11.6
306.093	5.25
306.309	-18.27
306.526	8.02
306.742	-23.08
306.958	10.98
307.175	-16.23
307.391	7.65
307.608	-7.9
307.824	12.47
308.04	4.69
308.257	7.65
308.473	-4.57
308.689	7.28
308.905	-24.75
309.122	2.28
309.338	-9.75
309.554	-4.57
309.77	12.09
309.986	19.5
310.203	-16.04
310.419	14.13
310.635	-12.9
310.851	13.95
311.067	14.69
311.283	21.91
311.499	-20.86
311.715	-17.34
311.931	-12.34
312.147	12.65
312.363	-14.38
312.579	31.72
312.795	3.39
313.011	1.91
313.227	-8.08
313.443	-3.64
313.659	-27.89
313.875	5.06
314.091	-18.82
314.307	-12.34
314.523	-7.9
314.738	12.65
314.954	3.39
315.17	-3.09
315.386	-0.12
315.602	8.58
315.817	-24.93
316.033	-6.97
316.249	-21.04
316.465	-1.97
316.68	-18.64
316.896	5.43
317.112	-21.04
317.327	-9.94
317.543	2.28
317.758	3.76
317.974	-36.04
318.19	-19.19
318.405	-0.49
318.621	-7.16
318.836	-11.79
319.052	-31.41
319.267	-1.42
319.483	-15.12
319.698	-30.48
319.914	-4.75
320.129	-37.52
320.344	9.69
320.56	-14.38
320.775	0.62
320.99	-8.82
321.206	5.99
321.421	-34.19
321.636	-23.82
321.852	-32.34
322.067	2.47
322.282	-10.49
322.498	-0.31
322.713	-20.12
322.928	-2.16
323.143	-2.34
323.358	-2.53
323.574	6.36
323.789	-1.97
324.004	-1.23
324.219	23.76
324.434	-1.23
324.649	11.91
324.864	-14.56
325.079	11.72
325.294	-6.97
325.509	-9.56
325.724	-16.23
325.939	9.32
326.154	-3.27
326.369	0.62
326.584	-0.49
326.799	9.69
327.014	-10.68
327.229	-7.53
327.444	-17.71
327.659	-8.64
327.873	-25.3
328.088	-1.23
328.303	0.06
328.518	7.47
328.733	-29.37
328.947	6.36
329.162	7.1
329.377	-12.71
329.591	-15.3
329.806	-6.6
330.021	-19.56
330.235	16.17
330.45	-18.64
330.665	-11.05
330.879	-5.86
331.094	-5.68
331.309	3.58
331.523	5.99
331.738	0.99
331.952	-1.05
332.167	-22.52
332.381	10.61
332.596	-17.34
332.81	-16.41
333.025	-14.56
333.239	-18.64
333.453	-19.56
333.668	-11.79
333.882	-18.08
334.097	7.1
334.311	-10.12
334.525	-14.01
334.74	-18.64
334.954	13.39
335.168	-7.9
335.382	-21.04
335.597	-24.19
335.811	-12.9
336.025	-29
336.239	-9.19
336.453	-19.19
336.668	-5.31
336.882	11.54
337.096	17.09
337.31	-11.05
337.524	5.06
337.738	-16.6
337.952	-6.42
338.166	-33.82
338.38	-4.57
338.594	-18.27
338.808	-22.52
339.022	-11.97
339.236	-4.01
339.45	6.17
339.664	-10.49
339.878	-26.78
340.092	-12.34
340.306	-5.68
340.52	8.39
340.734	-23.45
340.948	-5.31
341.161	-23.63
341.375	-7.34
341.589	-10.68
341.803	-5.12
342.017	-5.68
342.23	-11.97
342.444	-15.12
342.658	-6.79
342.871	-15.12
343.085	0.62
343.299	-7.34
343.512	2.84
343.726	-25.12
343.94	-15.67
344.153	-6.42
344.367	6.36
344.58	-4.94
344.794	2.28
345.008	-14.01
345.221	-10.68
345.435	16.72
345.648	-12.9
345.862	-10.49
346.075	28.39
346.288	-3.09
346.502	-25.86
346.715	-13.08
346.929	-4.2
347.142	-17.71
347.355	-8.45
347.569	-6.05
347.782	1.36
347.995	-5.68
348.209	-0.12
348.422	-16.04
348.635	-9.38
348.848	-2.9
349.062	15.24
349.275	8.95
349.488	-7.9
349.701	-4.38
349.914	1.73
350.128	4.13
350.341	11.91
350.554	-27.52
350.767	11.35
350.98	-13.45
351.193	12.84
351.406	-6.6
351.619	-7.71
351.832	-27.34
352.045	0.25
352.258	-13.64
352.471	-19.01
352.684	-3.09
352.897	2.65
353.11	-6.97
353.323	-16.23
353.536	-11.23
353.748	3.21
353.961	-6.42
354.174	-15.3
354.387	-16.97
354.6	-5.31
354.813	-5.31
355.025	-1.05
355.238	-9.94
355.451	15.8
355.664	-16.41
355.876	-4.75
356.089	-7.16
356.302	12.09
356.514	-8.27
356.727	-15.67
356.94	-36.59
357.152	2.47
357.365	-20.3
357.577	-8.82
357.79	9.87
358.002	-9.75
358.215	-17.53
358.427	5.43
358.64	-26.78
358.852	2.65
359.065	4.32
359.277	-5.12
359.49	-8.08
359.702	-0.31
359.915	5.06
360.127	-3.27
360.339	-23.82
360.552	6.36
360.764	-6.6
360.976	7.47
361.189	-12.34
361.401	23.39
361.613	-0.49
361.825	-8.08
362.038	-1.6
362.25	-4.38
362.462	-14.38
362.674	0.62
362.886	0.99
363.099	-4.01
363.311	-24
363.523	4.32
363.735	-29.19
363.947	-17.53
364.159	-7.71
364.371	-0.49
364.583	-43.44
364.795	3.02
365.007	-9.75
365.219	-5.31
365.431	-3.64
365.643	12.47
365.855	0.99
366.067	2.65
366.279	-17.16
366.491	9.87
366.703	-21.23
366.914	-5.68
367.126	-21.04
367.338	10.43
367.55	-11.23
367.762	-0.68
367.974	10.61
368.185	2.65
368.397	-24
368.609	22.09
368.82	0.25
369.032	-0.86
369.244	-6.23
369.456	-17.71
369.667	-17.34
369.879	5.62
370.09	-18.82
370.302	-1.79
370.514	6.73
370.725	-13.27
370.937	-6.97
371.148	-15.49
371.36	2.47
371.571	-12.53
371.783	-24.56
371.994	-15.3
372.206	-17.34
372.417	-1.42
372.629	8.02
372.84	2.1
373.051	-31.04
373.263	-6.6
373.474	-7.53
373.685	-15.67
373.897	-10.49
374.108	-17.9
374.319	-7.53
374.531	-1.42
374.742	-11.42
374.953	-11.42
375.164	-23.63
375.375	-14.38
375.587	-1.42
375.798	-18.08
376.009	-13.45
376.22	6.36
376.431	-25.3
376.642	-10.31
376.853	-2.9
377.065	2.1
377.276	0.06
377.487	-0.12
377.698	-23.26
377.909	-1.23
378.12	-8.45
378.331	-9.75
378.542	-8.64
378.753	11.54
378.964	0.43
379.174	-24.56
379.385	4.32
379.596	-6.79
379.807	-33.26
380.018	16.72
380.229	-26.23
380.44	-24
380.65	-4.2
380.861	-3.27
381.072	11.35
381.283	-1.6
381.493	5.99
381.704	-9.19
381.915	-28.08
382.126	-3.09
382.336	4.69
382.547	-10.49
382.757	-1.23
382.968	22.46
383.179	-22.89
383.389	27.09
383.6	-15.67
383.81	1.17
384.021	-21.97
384.231	-1.6
384.442	-5.31
384.652	-6.42
384.863	-13.08
385.073	26.72
385.284	-16.78
385.494	-11.42
385.705	-27.52
385.915	-4.38
386.125	-26.6
386.336	11.72
386.546	-10.49
386.756	23.2
386.967	0.25
387.177	2.84
387.387	-16.6
387.598	10.8
387.808	-21.6
388.018	0.25
388.228	-23.63
388.439	18.57
388.649	-23.45
388.859	-0.31
389.069	-1.6
389.279	1.54
389.489	20.8
389.699	-14.56
389.909	-24.37
390.12	-0.86
390.33	-22.71
390.54	13.58
390.75	-26.97
390.96	-8.08
391.17	-9.75
391.38	-9.38
391.59	-25.12
391.799	3.02
392.009	-14.19
392.219	5.06
392.429	-21.78
392.639	4.32
392.849	-20.67
393.059	-7.9
393.269	-10.68
393.478	-6.6
393.688	-19.38
393.898	-2.34
394.108	5.25
394.317	-11.42
394.527	-9.56
394.737	2.1
394.947	-16.23
395.156	-2.72
395.366	-23.45
395.576	8.02
395.785	0.8
395.995	2.47
396.204	-41.41
396.414	6.91
396.624	-17.71
396.833	-14.19
397.043	-19.56
397.252	-21.41
397.462	-6.79
397.671	2.1
397.881	-7.53
398.09	-6.6
398.299	-32.52
398.509	-6.79
398.718	4.13
398.928	12.84
399.137	-19.75
399.346	3.58
399.556	-26.23
399.765	8.39
399.974	-6.97
400.184	-13.08
400.393	-1.6
400.602	8.21
400.811	-25.3
401.021	12.47
401.23	-14.93
401.439	4.69
401.648	-27.15
401.857	-29.19
402.066	3.76
402.276	11.72
402.485	-16.78
402.694	-11.23
402.903	-20.49
403.112	4.5
403.321	-14.01
403.53	2.47
403.739	-29.56
403.948	-11.23
404.157	-29.74
404.366	-13.27
404.575	6.54
404.784	10.98
404.993	-14.01
405.202	0.8
405.411	-15.86
405.619	-12.53
405.828	-9.75
406.037	-21.04
406.246	-16.23
406.455	2.1
406.663	-14.56
406.872	3.76
407.081	-14.19
407.29	-4.2
407.498	-4.38
407.707	-6.05
407.916	-3.83
408.124	-8.45
408.333	-17.71
408.542	-6.79
408.75	-21.41
408.959	2.28
409.168	-27.71
409.376	4.5
409.585	-22.52
409.793	-9.01
410.002	-27.15
410.21	-10.68
410.419	-17.9
410.627	15.24
410.836	-6.23
411.044	-9.94
411.253	-15.67
411.461	3.76
411.669	-3.27
411.878	11.91
412.086	-19.56
412.294	-4.38
412.503	-28.82
412.711	28.2
412.919	5.8
413.128	-7.71
413.336	-22.52
413.544	10.06
413.752	-7.53
413.961	-1.42
414.169	-1.05
414.377	6.54
414.585	7.65
414.793	18.94
415.001	-11.05
415.209	-11.23
415.418	-6.23
415.626	3.58
415.834	-2.72
416.042	-4.01
416.25	-6.23
416.458	2.1
416.666	-9.19
416.874	-12.53
417.082	-15.49
417.29	-7.71
417.498	-25.3
417.706	4.87
417.913	5.25
418.121	-3.83
418.329	-11.6
418.537	-14.75
418.745	-15.49
418.953	-4.75
419.161	-18.27
419.368	-19.56
419.576	2.1
419.784	-2.16
419.992	-11.79
420.199	-3.09
420.407	-15.86
420.615	8.58
420.822	-11.97
421.03	8.58
421.238	-12.16
421.445	-1.79
421.653	7.65
421.861	22.65
422.068	-4.2
422.276	15.98
422.483	-19.19
422.691	13.76
422.898	-27.52
423.106	9.32
423.313	-21.23
423.521	-13.45
423.728	-11.97
423.936	29.31
424.143	-11.6
424.35	20.98
424.558	-27.71
424.765	5.62
424.973	6.73
425.18	15.61
425.387	5.25
425.594	14.13
425.802	1.54
426.009	19.13
426.216	3.21
426.424	22.28
426.631	1.36
426.838	8.39
427.045	8.95
427.252	12.84
427.459	16.91
427.667	30.05
427.874	-9.38
428.081	23.39
428.288	15.43
428.495	42.83
428.702	24.5
428.909	26.35
429.116	34.87
429.323	26.53
429.53	50.6
429.737	27.83
429.944	62.63
430.151	58.93
430.358	62.63
430.565	66.52
430.772	97.62
430.979	97.07
431.185	92.99
431.392	84.11
431.599	142.98
431.806	143.35
432.013	159.27
432.219	174.08
432.426	191.85
432.633	206.85
432.84	245.72
433.046	210.36
433.253	325.88
433.46	292.38
433.666	376.05
433.873	382.72
434.08	463.43
434.286	529.15
434.493	681.88
434.7	589.32
434.906	739.46
435.113	754.45
435.319	978.45
435.526	941.61
435.732	1213.56
435.939	1036.21
436.145	1449.97
436.352	1350.37
436.558	1717.66
436.765	1613.25
436.971	2026.45
437.177	1931.85
437.384	2420.21
437.59	2202.32
437.796	2579.42
438.003	2547.03
438.209	2989.66
438.415	2941.9
438.622	3436
438.828	3418.04
439.034	3782.19
439.24	3705.55
439.447	4290.17
439.653	4160.21
439.859	4822.97
440.065	4520.1
440.271	5169.89
440.477	5018.83
440.683	5540.89
440.89	5651.41
441.096	6382.28
441.302	6105.52
441.508	6683.85
441.714	6578.52
441.92	7257.56
442.126	7091.13
442.332	7839.41
442.538	7734.07
442.744	8242.8
442.95	8367.39
443.156	8677.29
443.361	8764.3
443.567	9356.52
443.773	9160.1
443.979	9816.74
444.185	9710.29
444.391	10260.86
444.596	10213.84
444.802	10743.67
445.008	10631.11
445.214	11325.33
445.42	11094.85
445.625	11877.94
445.831	11701.88
446.037	12374.44
446.242	12228.75
446.448	12357.78
446.654	12392.4
446.859	12692.86
447.065	12633.06
447.27	12999.06
447.476	12735.25
447.682	13281.19
447.887	13297.11
448.093	13757.34
448.298	13124.02
448.504	13629.6
448.709	13363.39
448.915	13719.75
449.12	13123.09
449.325	13706.06
449.531	13605.35
449.736	13470.58
449.942	13317.11
450.147	13505.93
450.352	13284.34
450.558	13049.23
450.763	12790.24
450.968	13086.07
451.174	12892.06
451.379	12561.79
451.584	12078.24
451.789	12487
451.995	12046.03
452.2	11988.27
452.405	11765.56
452.61	11582.84
452.815	11528.79
453.02	11207.59
453.226	10846.97
453.431	10931.02
453.636	10555.58
453.841	10228.83
454.046	10019.46
454.251	10134.05
454.456	9533.13
454.661	9556.08
454.866	9179.35
455.071	9064.76
455.276	8784.29
455.481	8670.44
455.686	8274.64
455.891	8560.66
456.095	7929.01
456.3	8096.74
456.505	7557.65
456.71	7747.96
456.915	7192.77
457.12	7237.75
457.324	6697.55
457.529	6984.87
457.734	6368.58
457.939	6728.1
458.144	6237.7
458.348	6443
458.553	6035.17
458.758	6069.79
458.962	5875.96
459.167	5952.05
459.372	5454.8
459.576	5857.08
459.781	5382.6
459.985	5476.28
460.19	5168.41
460.394	5268.38
460.599	5037.9
460.803	5056.04
461.008	4775.94
461.212	4887.76
461.417	4634.32
461.621	4715.22
461.826	4373.48
462.03	4772.8
462.235	4299.99
462.439	4603.22
462.643	4187.98
462.848	4422.72
463.052	4233.71
463.256	4447.35
463.461	3919.74
463.665	4242.23
463.869	3952.5
464.074	4155.77
464.278	3762.56
464.482	3963.24
464.686	3688.88
464.89	3953.8
465.095	3647.05
465.299	3806.81
465.503	3389.35
465.707	3653.52
465.911	3336.4
466.115	3606.32
466.319	3256.8
466.523	3440.81
466.727	3143.32
466.931	3314.37
467.135	2928.2
467.339	3098.15
467.543	2951.71
467.747	3062.6
467.951	2857.11
468.155	2935.42
468.359	2758.63
468.563	2932.27
468.767	2482.79
468.971	2658.84
469.175	2504.82
469.379	2594.97
469.582	2331.17
469.786	2420.59
469.99	2212.87
470.194	2356.53
470.397	2035.89
470.601	2100.5
470.805	2125.12
471.009	2126.42
471.212	1957.4
471.416	2039.23
471.62	1765.98
471.823	1970.91
472.027	1756.72
472.23	1876.13
472.434	1670.27
472.638	1869.09
472.841	1568.82
473.045	1778.38
473.248	1628.62
473.452	1698.96
473.655	1459.78
473.859	1698.04
474.062	1508.84
474.266	1560.49
474.469	1493.66
474.672	1534.2
474.876	1412.2
475.079	1644.17
475.283	1414.42
475.486	1601.22
475.689	1403.87
475.893	1591.78
476.096	1385.73
476.299	1554.94
476.502	1401.47
476.706	1645.65
476.909	1301.87
477.112	1597.88
477.315	1360.37
477.519	1705.44
477.722	1466.82
477.925	1540.13
478.128	1413.13
478.331	1676.75
478.534	1499.4
478.737	1686.93
478.94	1493.29
479.143	1666.01
479.346	1548.64
479.549	1812.63
479.752	1596.03
479.955	1825.96
480.158	1696.56
480.361	1879.46
480.564	1695.45
480.767	1884.27
480.97	1820.22
481.173	1935.74
481.376	1827.81
481.579	2004.05
481.782	1870.76
481.984	2055.7
482.187	1944.26
482.39	2179.55
482.593	1899.64
482.796	2189.36
482.998	2021.64
483.201	2339.5
483.404	2012.2
483.606	2333.39
483.809	2077.36
484.012	2368.01
484.214	2238.61
484.417	2501.49
484.62	2246.94
484.822	2625.7
485.025	2370.97
485.227	2732.15
485.43	2481.86
485.632	2688.46
485.835	2501.67
486.037	2790.1
486.24	2660.88
486.442	2914.13
486.645	2724.93
486.847	3040.94
487.05	2801.2
487.252	3127.21
487.455	2821.94
487.657	3176.45
487.859	2964.12
488.062	3371.95
488.264	3191.64
488.466	3343.07
488.668	3281.98
488.871	3515.42
489.073	3370.84
489.275	3599.84
489.477	3479.88
489.68	3727.2
489.882	3517.27
490.084	3880.49
490.286	3681.29
490.488	4021.93
490.69	3790.15
490.893	4069.87
491.095	3861.79
491.297	4214.09
491.499	3951.39
491.701	4418.47
491.903	4045.25
492.105	4442.16
492.307	4240.37
492.509	4572.86
492.711	4452.34
492.913	4692.08
493.115	4453.08
493.317	4892.76
493.518	4598.59
493.72	4903.13
493.922	4738.18
494.124	5126.76
494.326	4868.51
494.528	5223.95
494.73	5108.06
494.931	5403.15
495.133	5074.74
495.335	5435.92
495.537	5264.12
495.738	5586.8
495.94	5342.8
496.142	5748.04
496.343	5515.34
496.545	5882.44
496.747	5711.94
496.948	5952.61
497.15	5923.54
497.351	6190.31
497.553	6005.37
497.755	6312.68
497.956	6004.63
498.158	6377.47
498.359	6237.14
498.561	6495.21
498.762	6258.62
498.964	6599.07
499.165	6536.68
499.366	6617.21
499.568	6565.74
499.769	6836.21
499.971	6628.5
500.172	7050.03
500.373	6933.59
500.575	7096.31
500.776	6969.32
500.977	7116.49
501.178	6927.29
501.38	7369.56
501.581	7189.99
501.782	7521.36
501.983	7203.13
502.185	7518.03
502.386	7433.8
502.587	7595.78
502.788	7577.64
502.989	7811.64
503.19	7761.29
503.391	7902.54
503.593	7895.69
503.794	7966.59
503.995	7868.29
504.196	8191.89
504.397	7994.73
504.598	8323.33
504.799	8097.48
505	8424.59
505.201	8132.28
505.402	8650.63
505.602	8363.13
505.803	8568.07
506.004	8453.47
506.205	8744.86
506.406	8466.06
506.607	8806.51
506.808	8684.51
507.008	8889.63
507.209	8871.3
507.41	9118.82
507.611	8821.32
507.812	9089.94
508.012	8907.59
508.213	9285.43
508.414	9140.29
508.614	9367.81
508.815	9094.94
509.016	9614.4
509.216	9242.67
509.417	9615.88
509.617	9309.68
509.818	9677.71
510.019	9440.38
510.219	9871.72
510.42	9587.19
510.62	9824.33
510.821	9712.7
511.021	10021.12
511.222	9821.74
511.422	9956.88
511.623	9783.6
511.823	10330.47
512.023	9930.78
512.224	10238.83
512.424	10058.15
512.624	10354.35
512.825	10184.59
513.025	10467.83
513.225	10364.34
513.426	10561.32
513.626	10380.45
513.826	10684.06
514.026	10432.66
514.227	10659.99
514.427	10481.9
514.627	10812.16
514.827	10732.38
515.027	10642.96
515.228	10775.32
515.428	11007.66
515.628	10557.8
515.828	10986.74
516.028	10821.61
516.228	11225.74
516.428	11011.92
516.628	11153.35
516.828	10966.75
517.028	11294.97
517.228	11119.29
517.428	11308.49
517.628	10975.08
517.828	11472.88
518.028	11163.9
518.228	11312.19
518.428	11190.01
518.627	11446.04
518.827	11129.47
519.027	11352.73
519.227	11438.82
519.427	11420.12
519.626	11210.74
519.826	11593.58
520.026	11427.52
520.226	11573.4
520.425	11357.36
520.625	11719.28
520.825	11532.31
521.024	11544.15
521.224	11311.08
521.424	11722.06
521.623	11501.57
521.823	11699.29
522.023	11428.26
522.222	11644.49
522.422	11381.8
522.621	11658.01
522.821	11520.09
523.02	11553.78
523.22	11384.76
523.419	11700.21
523.619	11333.29
523.818	11696.33
524.017	11482.51
524.217	11686.7
524.416	11347.18
524.616	11646.9
524.815	11430.86
525.014	11801.85
525.214	11489.36
525.413	11833.14
525.612	11424.75
525.812	11805.37
526.011	11307.56
526.21	11731.32
526.409	11447.33
526.608	11718.91
526.808	11542.49
527.007	11714.65
527.206	11443.44
527.405	11504.72
527.604	11506.02
527.803	11732.8
528.003	11363.66
528.202	11791.3
528.401	11402.72
528.6	11510.28
528.799	11448.63
528.998	11611.54
529.197	11346.44
529.396	11677.81
529.595	11305.16
529.794	11714.28
529.993	11408.46
530.192	11674.67
530.39	11304.04
530.589	11589.69
530.788	11390.87
530.987	11491.21
531.186	11325.33
531.385	11568.22
531.583	11364.58
531.782	11481.95
531.981	11244.06
532.18	11434.74
532.379	11247.21
532.577	11545.08
532.776	11302.56
532.975	11512.31
533.173	11239.62
533.372	11531.56
533.571	11168.9
533.769	11422.71
533.968	11333.67
534.166	11465.47
534.365	11303.3
534.564	11381.98
534.762	11094.67
534.961	11524.72
535.159	11108.92
535.358	11538.41
535.556	11164.64
535.755	11387.17
535.953	11093.93
536.151	11419.01
536.35	11172.24
536.548	11364.77
536.747	11146.5
536.945	11320.52
537.143	10998.03
537.342	11349.03
537.54	11205.74
537.738	11374.02
537.937	11060.79
538.135	11222.96
538.333	11043.39
538.531	11293.12
538.73	11009.69
538.928	11179.64
539.126	11065.97
539.324	11299.05
539.522	11016.73
539.72	11167.79
539.919	10930.09
540.117	11332.55
540.315	10903.06
540.513	11217.22
540.711	10983.78
540.909	11233.33
541.107	10999.51
541.305	11224.07
541.503	10930.83
541.701	11068.38
541.899	10989.89
542.097	11087.08
542.295	10897.88
542.493	11034.87
542.691	10858.82
542.888	11070.42
543.086	10902.14
543.284	11183.16
543.482	10744.96
543.68	10982.67
543.878	10747.74
544.075	11015.8
544.273	10832.71
544.471	10933.24
544.669	10809.2
544.866	10958.6
545.064	10723.3
545.262	10958.41
545.459	10651.11
545.657	11049.87
545.855	10625.19
546.052	11043.94
546.25	10727.19
546.447	10918.43
546.645	10600.57
546.842	10869
547.04	10567.98
547.238	10897.32
547.435	10696.09
547.633	10871.41
547.83	10540.77
548.027	10786.43
548.225	10555.21
548.422	10966.75
548.62	10297.51
548.817	10850.3
549.014	10408.22
549.212	10846.6
549.409	10421.92
549.606	10823.27
549.804	10611.67
550.001	10612.23
550.198	10370.08
550.396	10599.27
550.593	10485.79
550.79	10572.98
550.987	10429.88
551.184	10513.74
551.382	10404.7
551.579	10514.3
551.776	10347.13
551.973	10474.68
552.17	10317.51
552.367	10634.07
552.564	10120.16
552.761	10473.94
552.958	10154.78
553.155	10480.05
553.353	10239.94
553.55	10398.96
553.746	10111.28
553.943	10517.81
554.14	10185.51
554.337	10407.11
554.534	10269
554.731	10367.68
554.928	10148.49
555.125	10260.12
555.322	10204.03
555.519	10351.76
555.715	9980.02
555.912	10329.73
556.109	10037.23
556.306	10268.26
556.503	9922.26
556.699	10366.01
556.896	9811.56
557.093	10181.81
557.289	9888.57
557.486	10243.46
557.683	10021.31
557.879	10232.16
558.076	9904.31
558.273	10232.16
558.469	9877.09
558.666	10094.62
558.862	9835.81
559.059	10083.88
559.255	9670.49
559.452	10065.37
559.648	9680.3
559.845	10151.64
560.041	9647.91
560.238	10057.78
560.434	9644.57
560.631	9922.26
560.827	9695.3
561.023	9873.21
561.22	9629.02
561.416	9911.34
561.612	9503.88
561.809	9780.46
562.005	9426.13
562.201	9787.68
562.398	9465.93
562.594	9729.73
562.79	9514.8
562.986	9725.1
563.182	9394.65
563.379	9734.55
563.575	9321.34
563.771	9507.4
563.967	9434.46
564.163	9650.5
564.359	9463.15
564.555	9674.94
564.751	9171.02
564.947	9581.08
565.144	9267.84
565.34	9510.17
565.536	9341.15
565.732	9483.14
565.928	9220.27
566.123	9405.21
566.319	9273.21
566.515	9429.46
566.711	9147.7
566.907	9439.27
567.103	8977.57
567.299	9315.61
567.495	9143.44
567.691	9325.79
567.886	9121.41
568.082	9290.98
568.278	8973.31
568.474	9400.76
568.669	9062.91
568.865	9298.39
569.061	8928.32
569.257	9306.16
569.452	8977.38
569.648	9194.53
569.844	8919.07
570.039	9129.55
570.235	9032.36
570.43	9181.2
570.626	8985.34
570.822	8964.61
571.017	8820.76
571.213	9035.88
571.408	8913.7
571.604	9119.56
571.799	8807.25
571.995	9185.83
572.19	8731.16
572.385	9021.07
572.581	8672.11
572.776	9022.92
572.972	8675.44
573.167	9011.26
573.362	8608.42
573.558	8910.92
573.753	8633.23
573.948	8914.25
574.144	8504.94
574.339	8995.34
574.534	8577.69
574.729	8756.9
574.925	8526.04
575.12	8777.26
575.315	8493.46
575.51	8846.31
575.705	8505.68
575.9	8742.46
576.096	8491.98
576.291	8689.88
576.486	8553.63
576.681	8701.17
576.876	8294.64
577.071	8596.58
577.266	8347.58
577.461	8703.95
577.656	8307.59
577.851	8661.37
578.046	8222.25
578.241	8549.55
578.436	8339.81
578.631	8544
578.826	8152.27
579.021	8426.07
579.215	8284.27
579.41	8589.54
579.605	8135.43
579.8	8489.94
579.995	8225.77
580.189	8368.32
580.384	8079.33
580.579	8367.2
580.774	8140.43
580.968	8355.17
581.163	8140.98
581.358	8341.47
581.552	8044.53
581.747	8378.31
581.942	8028.05
582.136	8365.72
582.331	7965.67
582.526	8220.96
582.72	7854.04
582.915	8217.07
583.109	7950.49
583.304	8125.99
583.498	7832.93
583.693	8139.31
583.887	7839.04
584.082	8122.84
584.276	7898.47
584.471	7985.66
584.665	7809.05
584.859	8027.87
585.054	7744.07
585.248	7952.34
585.442	7814.97
585.637	7948.26
585.831	7608.37
586.025	7967.89
586.22	7582.64
586.414	7917.72
586.608	7479.34
586.802	7873.47
586.997	7499.89
587.191	7767.58
587.385	7484.52
587.579	7737.78
587.773	7534.51
587.967	7787.95
588.162	7434.35
588.356	7726.85
588.55	7550.43
588.744	7671.32
588.938	7340.5
589.132	7653.36
589.326	7317.91
589.52	7614.3
589.714	7222.94
589.908	7628.55
590.102	7291.81
590.296	7612.08
590.49	7316.43
590.684	7471.19
590.877	7220.9
591.071	7430.47
591.265	7244.23
591.459	7431.58
591.653	7074.65
591.847	7465.27
592.04	7165.74
592.234	7520.07
592.428	7041.33
592.622	7353.45
592.815	7051.33
593.009	7369.56
593.203	7026.89
593.397	7224.42
593.59	6949.88
593.784	7182.4
593.977	6900.27
594.171	7267.74
594.365	6926.74
594.558	7027.45
594.752	6928.59
594.945	7087.24
595.139	6816.59
595.332	7082.24
595.526	6767.16
595.719	7078.17
595.913	6653.86
596.106	7060.77
596.3	6612.39
596.493	7024.49
596.687	6555.01
596.88	6914.15
597.073	6551.67
597.267	6878.42
597.46	6507.61
597.653	6700.33
597.847	6540.38
598.04	6770.49
598.233	6542.97
598.426	6742.91
598.62	6356.74
598.813	6654.05
599.006	6319.16
599.199	6659.97
599.392	6279.72
599.586	6428.75
599.779	6046.09
599.972	6511.5
600.165	6181.42
600.358	6432.82
600.551	6225.48
600.744	6355.81
600.937	5994.81
601.13	6274.35
601.323	5978.89
601.516	6363.03
601.709	5995.55
601.902	6138.66
602.095	5875.22
602.288	6061.46
602.481	5898.18
602.674	6122.18
602.867	5747.67
603.06	6104.04
603.252	5741.75
603.445	6092.56
603.638	5542.74
603.831	6108.85
604.024	5623.08
604.216	5895.96
604.409	5493.86
604.602	5824.68
604.795	5535.52
604.987	5797.47
605.18	5430.18
605.373	5824.5
605.565	5335.4
605.758	5751.74
605.951	5409.45
606.143	5598.46
606.336	5351.13
606.528	5651.96
606.721	5242.65
606.913	5469.06
607.106	5143.42
607.298	5434.25
607.491	5151.94
607.683	5416.67
607.876	5014.76
608.068	5234.5
608.261	5024.38
608.453	5208.4
608.646	4940.34
608.838	5202.29
609.03	4810.93
609.223	5195.81
609.415	4845.37
609.607	5038.64
609.8	4756.69
609.992	5002.72
610.184	4717.44
610.376	4981.25
610.569	4600.81
610.761	4872.21
610.953	4582.67
611.145	4844.63
611.337	4543.98
611.529	4870.17
611.722	4496.22
611.914	4828.89
612.106	4472.34
612.298	4775.57
612.49	4425.5
612.682	4729.66
612.874	4366.26
613.066	4660.24
613.258	4288.14
613.45	4660.8
613.642	4237.6
613.834	4615.25
614.026	4335.34
614.218	4486.04
614.41	4144.85
614.602	4433.28
614.793	4109.31
614.985	4488.63
615.177	4018.59
615.369	4357
615.561	4034.88
615.753	4260.74
615.944	4042.47
616.136	4328.12
616.328	4063.76
616.52	4311.46
616.711	3923.07
616.903	4277.21
617.095	3849.02
617.286	4191.32
617.478	3788.3
617.67	4091.16
617.861	3698.33
618.053	4152.25
618.244	3774.78
618.436	4012.11
618.627	3690.18
618.819	3993.79
619.01	3730.91
619.202	4032.29
619.393	3509.68
619.585	3940.29
619.776	3669.08
619.968	3904.37
620.159	3639.83
620.351	3871.79
620.542	3494.5
620.733	3780.15
620.925	3560.41
621.116	3800.51
621.307	3409.71
621.499	3677.96
621.69	3339.18
621.881	3660.74
622.072	3356.95
622.264	3588.92
622.455	3238.84
622.646	3590.58
622.837	3150.54
623.028	3519.86
623.22	3202.93
623.411	3443.78
623.602	3091.11
623.793	3436.19
623.984	3079.82
624.175	3325.3
624.366	3020.02
624.557	3321.41
624.748	2909.13
624.939	3288.64
625.13	2785.84
625.321	3199.97
625.512	2780.1
625.703	3114.44
625.894	2791.02
626.085	3045.76
626.276	2685.87
626.467	2963
626.658	2643.85
626.848	2976.52
627.039	2570.72
627.23	2890.62
627.421	2492.97
627.612	2841.75
627.802	2510
627.993	2646.25
628.184	2302.66
628.375	2627.19
628.565	2329.69
628.756	2591.64
628.947	2281.93
629.137	2553.88
629.328	2237.68
629.519	2437.99
629.709	2100.32
629.9	2433.91
630.09	2098.47
630.281	2374.67
630.471	1987.39
630.662	2291.74
630.852	1935.93
631.043	2207.88
631.233	1937.41
631.424	2121.79
631.614	1893.16
631.805	2059.03
631.995	1781.72
632.185	2075.32
632.376	1729.51
632.566	1943.7
632.756	1646.94
632.947	1933.7
633.137	1625.65
633.327	1887.79
633.518	1589.18
633.708	1884.09
633.898	1532.54
634.088	1767.28
634.279	1458.11
634.469	1692.11
634.659	1394.06
634.849	1669.9
635.039	1376.29
635.229	1583.82
635.42	1384.43
635.61	1501.43
635.8	1313.72
635.99	1482
636.18	1267.62
636.37	1391.47
636.56	1239.3
636.75	1388.69
636.94	1137.48
637.13	1409.43
637.32	1089.34
637.51	1294.28
637.7	1085.83
637.89	1227.08
638.079	1086.2
638.269	1198.94
638.459	1012.89
638.649	1194.5
638.839	923.47
639.029	1192.64
639.218	882.74
639.408	1127.66
639.598	859.05
639.788	998.26
639.977	824.43
640.167	1011.41
640.357	846.64
640.546	961.61
640.736	770.37
640.926	927.54
641.115	689.1
641.305	911.07
641.495	684.84
641.684	835.17
641.874	641.34
642.063	838.68
642.253	635.04
642.442	772.22
642.632	617.09
642.821	758.89
643.011	549.15
643.2	716.68
643.39	546.18
643.579	677.07
643.768	510.27
643.958	622.09
644.147	560.99
644.336	660.04
644.526	488.98
644.715	586.36
644.904	485.46
645.094	563.4
645.283	461.03
645.472	506.2
645.661	426.41
645.851	515.64
646.04	397.9
646.229	494.9
646.418	372.72
646.607	476.76
646.796	376.42
646.986	489.72
647.175	363.46
647.364	446.22
647.553	341.99
647.742	405.67
647.931	335.33
648.12	381.79
648.309	348.65
648.498	376.05
648.687	320.51
648.876	345.32
649.065	279.42
649.254	358.47
649.443	273.86
649.632	321.44
649.82	272.57
650.009	334.58
650.198	262.02
650.387	306.63
650.576	233.32
650.765	293.3
650.953	238.13
651.142	279.6
651.331	213.33
651.52	282.75
651.708	177.41
651.897	255.54
652.086	195.74
652.274	223.14
652.463	161.12
652.652	204.44
652.84	176.86
653.029	226.66
653.217	188.52
653.406	209.44
653.594	180.74
653.783	180.56
653.972	138.91
654.16	187.41
654.349	156.86
654.537	146.68
654.725	170.93
654.914	96.14
655.102	142.61
655.291	156.31
655.479	125.21
655.667	148.35
655.856	126.69
656.044	135.57
656.232	118.91
656.421	113.17
656.609	122.99
656.797	152.79
656.986	83.37
657.174	115.58
657.362	124.1
657.55	118.54
657.738	78.56
657.927	119.1
658.115	86.52
658.303	101.51
658.491	91.14
658.679	101.14
658.867	88
659.055	86.7
659.243	100.77
659.431	88
659.619	80.59
659.807	76.52
659.995	75.96
660.183	83.74
660.371	61.71
660.559	61.34
660.747	68.93
660.935	67.63
661.123	63.56
661.311	69.67
661.499	55.04
661.687	70.78
661.875	39.68
662.062	65.78
662.25	51.71
662.438	53.01
662.626	60.97
662.813	75.41
663.001	64.67
663.189	43.38
663.377	52.64
663.564	33.38
663.752	58.75
663.94	29.5
664.127	29.5
664.315	39.12
664.502	39.31
664.69	59.86
664.878	57.82
665.065	44.49
665.253	15.98
665.44	42.64
665.628	51.53
665.815	35.79
666.003	36.72
666.19	30.79
666.378	40.23
666.565	51.16
666.752	34.12
666.94	27.83
667.127	40.97
667.315	25.05
667.502	55.04
667.689	33.94
667.877	23.57
668.064	3.21
668.251	28.76
668.438	20.8
668.626	28.39
668.813	1.54
669	30.98
669.187	35.24
669.374	26.16
669.562	10.8
669.749	13.02
669.936	40.6
670.123	35.98
670.31	-0.68
670.497	23.76
670.684	13.76
670.871	28.57
671.058	-7.53
671.245	20.98
671.432	2.47
671.619	31.35
671.806	1.91
671.993	37.46
672.18	4.87
672.367	27.46
672.554	9.87
672.741	33.01
672.928	3.95
673.115	18.76
673.302	24.68
673.488	24.31
673.675	3.95
673.862	4.13
674.049	16.35
674.235	23.76
674.422	-0.68
674.609	5.8
674.796	12.28
674.982	13.02
675.169	15.8
675.356	-1.23
675.542	7.28
675.729	38.2
675.916	-13.08
676.102	4.69
676.289	8.39
676.475	11.54
676.662	9.13
676.848	31.16
677.035	-9.75
677.221	13.76
677.408	-16.41
677.594	7.47
677.781	-5.86
677.967	30.98
678.154	-20.12
678.34	15.43
678.526	1.91
678.713	6.54
678.899	-6.6
679.085	12.65
679.272	16.35
679.458	8.39
679.644	-2.34
679.831	-3.46
680.017	-27.71
680.203	16.35
680.389	5.06
680.576	1.73
680.762	-5.49
680.948	-16.41
681.134	-2.34
681.32	3.58
681.506	-7.16
681.692	-1.6
681.879	-13.27
682.065	20.8
682.251	-10.86
682.437	4.32
682.623	-20.12
682.809	-14.01
682.995	7.28
683.181	-14.38
683.367	-28.63
683.553	-11.97
683.739	-11.6
683.924	-1.23
684.11	8.76
684.296	17.28
684.482	-26.6
684.668	-14.56
684.854	-1.79
685.04	0.06
685.225	-2.16
685.411	14.32
685.597	8.95
685.783	-6.6
685.968	-7.53
686.154	-6.79
686.34	-10.68
686.526	10.98
686.711	-10.12
686.897	-0.12
687.083	-16.97
687.268	-12.71
687.454	-14.93
687.639	11.54
687.825	-7.53
688.01	7.47
688.196	-5.49
688.382	19.31
688.567	-16.41
688.752	1.54
688.938	-3.46
689.123	12.65
689.309	-14.93
689.494	-5.31
689.68	-10.31
689.865	15.61
690.05	0.8
690.236	11.72
690.421	-29.19
690.606	-22.52
690.792	10.06
690.977	10.61
691.162	-1.23
691.348	-7.71
691.533	-20.3
691.718	-4.01
691.903	-8.82
692.089	2.84
692.274	-25.12
692.459	15.43
692.644	0.99
692.829	16.72
693.014	-12.71
693.199	1.73
693.384	-17.16
693.569	31.53
693.755	-11.79
693.94	-5.31
694.125	-5.31
694.31	14.69
694.495	5.25
694.68	9.32
694.864	-30.11
695.049	-12.71
695.234	-11.6
695.419	-1.05
695.604	-6.05
695.789	-7.9
695.974	-9.94
696.159	-7.16
696.344	-36.96
696.528	8.02
696.713	-17.71
696.898	13.39
697.083	-8.82
697.267	7.47
697.452	-23.82
697.637	4.69
697.822	-22.34
698.006	1.91
698.191	-7.53
698.375	-18.27
698.56	-14.56
698.745	-17.53
698.929	12.28
699.114	2.84
699.298	-29
699.483	2.84
699.668	-22.89
699.852	-8.08
700.037	-12.53
700.221	13.76
700.405	-6.42
700.59	-11.97
700.774	-10.49
700.959	5.62
701.143	-7.53
701.328	-5.12
701.512	-17.16
701.696	-19.75
701.881	-17.53
702.065	-18.64
702.249	2.28
702.433	9.69
702.618	-15.67
702.802	-3.64
702.986	-18.27
703.17	-9.56
703.355	-7.71
703.539	-26.78
703.723	-10.86
703.907	3.58
704.091	-9.01
704.275	-5.12
704.46	0.25
704.644	-9.75
704.828	-11.23
705.012	13.95
705.196	-32.52
705.38	4.69
705.564	-19.01
705.748	-1.79
705.932	-23.08
706.116	-25.49
706.3	-13.82
706.484	18.76
706.668	-8.82
706.851	17.09
707.035	-27.15
707.219	-6.05
707.403	-24.75
707.587	7.47
707.771	-8.27
707.954	-7.16
708.138	-21.41
708.322	29.87
708.506	-11.42
708.689	3.76
708.873	-16.78
709.057	13.02
709.241	-20.86
709.424	22.28
709.608	-5.86
709.792	-22.15
709.975	-24
710.159	-1.97
710.342	-21.6
710.526	-24.75
710.709	-18.45
710.893	5.43
711.077	-24.37
711.26	-4.57
711.443	-16.97
711.627	-11.97
711.81	-9.19
711.994	-19.75
712.177	0.06
712.361	1.91
712.544	-10.86
712.727	7.1
712.911	-1.79
713.094	-1.05
713.277	-8.27
713.461	1.73
713.644	-5.12
713.827	-4.94
714.011	-31.41
714.194	-4.94
714.377	-25.3
714.56	5.62
714.743	9.87
714.927	3.76
715.11	-24
715.293	4.69
715.476	-12.71
715.659	11.35
715.842	-27.89
716.025	-17.16
716.208	-2.72
716.391	-23.26
716.575	-20.67
716.758	0.43
716.941	-21.41
717.124	-13.08
717.306	-21.97
717.489	-2.34
717.672	-26.97
717.855	-9.94
718.038	-16.78
718.221	-7.53
718.404	-25.86
718.587	2.65
718.77	-22.52
718.952	-6.05
719.135	-19.93
719.318	-14.01
719.501	-6.42
719.684	-9.75
719.866	-16.6
720.049	3.76
720.232	-0.31
720.414	9.87
720.597	-12.34
720.78	-11.97
720.962	-0.68
721.145	-21.97
721.328	-6.79
721.51	-16.41
721.693	-6.05
721.875	-8.27
722.058	-2.53
722.24	7.65
722.423	-14.01
722.605	34.31
722.788	-24.56
722.97	-6.42
723.153	-15.12
723.335	-3.27
723.518	2.65
723.7	-13.08
723.882	-31.41
724.065	0.25
724.247	-8.27
724.429	-13.82
724.612	-9.01
724.794	-10.12
724.976	-16.41
725.159	0.06
725.341	-29.19
725.523	8.02
725.705	-23.26
725.888	7.1
726.07	-30.48
726.252	-5.12
726.434	-32.71
726.616	5.43
726.798	-15.49
726.98	0.62
727.162	2.1
727.345	3.95
727.527	-40.48
727.709	-3.09
727.891	-15.12
728.073	3.95
728.255	-9.56
728.437	6.54
728.619	-30.3
728.801	-2.53
728.982	-20.3
729.164	-0.86
729.346	-16.78
729.528	2.65
729.71	-11.42
729.892	-7.34
730.074	-13.64
730.255	5.62
730.437	-6.79
730.619	5.62
730.801	-5.49
730.983	-34
731.164	-34
731.346	1.73
731.528	-25.49
731.709	-6.6
731.891	-20.12
732.073	2.28
732.254	-21.23
732.436	-9.75
732.617	-24.93
732.799	-15.12
732.981	-13.82
733.162	13.58
733.344	-30.11
733.525	-0.68
733.707	-30.11
733.888	-22.34
734.07	-37.7
734.251	-4.01
734.433	-7.53
734.614	-9.56
734.795	-16.97
734.977	-3.09
735.158	-2.9
735.34	-4.2
735.521	-13.27
735.702	5.99
735.883	-6.97
736.065	6.36
736.246	-41.96
736.427	-1.42
736.609	-12.71
736.79	-30.11
736.971	-5.12
737.152	-4.38
737.333	-14.93
737.514	20.98
737.696	1.54
737.877	-23.63
738.058	-15.49
738.239	1.36
738.42	-28.08
738.601	1.91
738.782	-19.56
738.963	14.13
739.144	-6.97
739.325	-4.2
739.506	-21.97
739.687	-19.56
739.868	8.76
740.049	-15.86
740.23	-9.75
740.411	3.76
740.592	-20.12
740.773	-4.38
740.953	-2.9
741.134	-9.01
741.315	-16.6
741.496	-5.68
741.677	-20.3
741.857	-1.23
742.038	-11.23
742.219	-23.82
742.4	-32.15
742.58	-5.49
742.761	-0.49
742.942	-22.52
743.122	-34.74
743.303	-4.2
743.484	-9.38
743.664	1.91
743.845	-16.6
744.025	6.91
744.206	3.95
744.386	-0.49
744.567	-27.15
744.748	-0.12
744.928	-22.52
745.108	-5.12
745.289	-11.42
745.469	-5.31
745.65	-20.49
745.83	5.06
746.011	-1.42
746.191	-0.86
746.371	-9.75
746.552	-9.75
746.732	-9.94
746.912	-13.64
747.093	-17.71
747.273	-28.08
747.453	-24.19
747.633	-5.49
747.814	-7.9
747.994	29.31
748.174	-20.86
748.354	-9.01
748.534	8.58
748.715	-1.79
748.895	-16.04
749.075	-8.64
749.255	-19.75
749.435	-19.01
749.615	-7.16
749.795	4.69
749.975	-38.26
750.155	-1.42
750.335	2.28
750.515	18.76
750.695	-0.12
750.875	-0.49
751.055	-3.09
751.235	-8.08
751.415	-10.49
751.595	-12.16
751.775	-30.85
751.954	-2.34
752.134	-21.23
752.314	-23.63
752.494	-19.93
752.674	-2.72
752.854	-18.08
753.033	-3.46
753.213	0.99
753.393	-12.53
753.572	-11.42
753.752	0.43
753.932	-20.67
754.111	-20.49
754.291	-13.45
754.471	-24.37
754.65	-18.64
754.83	-13.82
755.01	-23.63
755.189	-9.01
755.369	-18.82
755.548	-1.23
755.728	-24.19
755.907	10.8
756.087	-13.45
756.266	-4.2
756.446	-33.45
756.625	28.94
756.804	1.54
756.984	9.13
757.163	-8.45
757.343	2.65
757.522	-16.78
757.701	24.31
757.881	-16.97
758.06	14.69
758.239	-14.93
758.418	36.72
758.598	2.65
758.777	-2.16
758.956	12.28
759.135	1.91
759.315	-14.56
759.494	-17.9
759.673	-18.82
759.852	1.91
760.031	-30.3
760.21	-11.79
760.389	-17.9
760.568	7.65
760.748	-25.67
760.927	13.76
761.106	-16.97
761.285	-8.45
761.464	-15.12
761.643	-9.75
761.822	-6.23
762	-17.71
762.179	-12.16
762.358	-13.27
762.537	-13.08
762.716	12.84
762.895	-33.63
763.074	4.13
763.253	1.36
763.431	-0.49
763.61	0.8
763.789	-2.72
763.968	-31.97
764.147	-5.86
764.325	-23.45
764.504	-10.86
764.683	-21.97
764.861	-0.12
765.04	-19.75
765.219	-4.2
765.397	-22.52
765.576	10.98
765.755	24.13
765.933	9.69
766.112	1.36
766.29	-1.05
766.469	-27.15
766.647	-8.64
766.826	-26.97
767.004	-15.3
767.183	-21.04
767.361	-14.19
767.54	-2.53
767.718	-4.38
767.897	-24.37
768.075	-15.12
768.253	-20.67
768.432	4.13
768.61	1.73
768.788	-15.86
768.967	-25.49
769.145	-9.56
769.323	0.99
769.501	-23.63
769.68	-16.41
769.858	18.57
770.036	-26.97
770.214	-11.79
770.393	0.25
770.571	1.91
770.749	-5.86
770.927	-12.53
771.105	-5.68
771.283	-3.09
771.461	-25.3
771.639	8.95
771.817	-19.38
771.995	0.8
772.173	-25.12
772.351	-10.68
772.529	-19.75
772.707	-11.42
772.885	-4.75
773.063	6.17
773.241	-20.12
773.419	-5.86
773.597	-15.67
773.775	-1.6
773.953	-21.78
774.131	-2.72
774.308	-24.19
774.486	-11.79
774.664	-9.94
774.842	7.65
775.02	-12.71
775.197	-11.23
775.375	-12.71
775.553	12.47
775.73	-26.23
775.908	32.46
776.086	-0.68
776.263	-3.46
776.441	-20.49
776.619	-22.15
776.796	-19.19
776.974	24.5
777.151	3.95
777.329	-16.23
777.506	-26.23
777.684	-19.19
777.861	8.21
778.039	-18.08
778.216	-4.01
778.394	-16.6
778.571	-21.97
778.749	-8.45
778.926	-24.19
779.103	-23.82
779.281	-25.49
779.458	-17.71
779.635	-10.49
779.813	-10.31
779.99	-27.89
780.167	2.1
780.345	-25.12
780.522	-10.68
780.699	-18.64
780.876	-37.52
781.054	-13.82
781.231	-3.27
781.408	-31.41
781.585	-14.56
781.762	-1.79
781.939	-32.89
782.116	-24.75
782.294	10.06
782.471	-11.97
782.648	0.06
782.825	-33.82
783.002	-8.08
783.179	-10.31
783.356	6.91
783.533	-16.6
783.71	7.47
783.887	-27.52
784.064	5.99
784.24	-2.16
784.417	-9.75
784.594	-13.64
784.771	-1.97
784.948	0.99
785.125	-8.27
785.302	-14.56
785.478	-2.16
785.655	-12.53
785.832	-0.31
786.009	-21.23
786.185	-6.6
786.362	-22.71
786.539	19.31
786.715	-11.97
786.892	5.43
787.069	-37.33
787.245	-5.12
787.422	-5.86
787.599	-2.9
787.775	-15.12
787.952	-22.15
788.128	2.65
788.305	-11.42
788.481	-22.89
788.658	-0.49
788.834	-23.26
789.011	9.13
789.187	-0.31
789.364	-22.34
789.54	-27.15
789.717	-1.97
789.893	-16.41
790.069	7.47
790.246	0.62
790.422	-20.49
790.598	-48.63
790.775	3.39
790.951	-0.68
791.127	9.13
791.304	-10.49
791.48	7.84
791.656	-14.38
791.832	-12.16
792.008	-16.23
792.185	-8.08
792.361	-22.15
792.537	-2.34
792.713	-2.53
792.889	17.28
793.065	-18.64
793.241	-13.45
793.417	-3.27
793.593	-10.86
793.769	-11.42
793.945	2.1
794.121	-7.34
794.297	1.54
794.473	-16.41
794.649	4.32
794.825	-18.64
795.001	-1.05
795.177	-37.89
795.353	-4.01
795.529	-16.78
795.705	-2.34
795.881	-11.79
796.056	-8.08
796.232	-24.37
796.408	-17.53
796.584	-26.6
796.76	12.47
796.935	-43.63
797.111	4.69
797.287	-7.9
797.462	8.95
797.638	-0.49
797.814	-13.82
797.989	-9.38
798.165	4.13
798.341	-12.16
798.516	-0.12
798.692	-9.38
798.867	-21.6
799.043	-22.15
799.218	-1.6
799.394	-6.42
799.569	-4.75
799.745	-0.31
799.92	-25.3
800.096	-14.19
800.271	6.91
800.447	-39.19
800.622	1.73
800.797	3.58
800.973	-9.38
801.148	-22.52
801.323	-9.19
801.499	-8.08
801.674	3.02
801.849	-17.16
802.025	-17.16
802.2	-20.49
802.375	-3.64
802.55	-19.38
802.725	13.58
802.901	-25.67
803.076	-12.53
803.251	-33.26
803.426	-3.27
803.601	-7.53
803.776	-11.42
803.951	5.8
804.127	7.65
804.302	-22.34
804.477	-1.05
804.652	-25.49
804.827	-19.75
805.002	-16.04
805.177	9.87
805.352	-10.49
805.526	-5.49
805.701	-14.93
805.876	11.35
806.051	-8.27
806.226	7.65
806.401	-27.34
806.576	13.02
806.751	-15.3
806.925	-0.86
807.1	-37.15
807.275	9.87
807.45	-7.53
807.625	-9.94
807.799	-11.6
807.974	-20.67
808.149	-19.75
808.323	-10.86
808.498	-10.49
808.673	-4.01
808.847	-41.22
809.022	-7.53
809.197	-15.12
809.371	16.17
809.546	-1.05
809.72	-10.31
809.895	-14.93
810.069	-18.82
810.244	-3.09
810.418	0.25
810.593	-18.08
810.767	-3.83
810.942	-9.38
811.116	-14.38
811.29	-2.53
811.465	-0.12
811.639	-15.12
811.814	5.8
811.988	-25.3
812.162	14.87
812.337	-0.86
812.511	10.24
812.685	-20.67
812.859	8.95
813.034	4.5
813.208	-20.3
813.382	-20.86
813.556	9.32
813.73	-2.9
813.905	1.17
814.079	-20.49
814.253	4.5
814.427	-7.71
814.601	-12.16
814.775	-16.97
814.949	-24
815.123	-19.01
815.297	7.1
815.471	-29.19
815.645	-8.64
815.819	-44.37
815.993	-6.6
816.167	-32.15
816.341	20.06
816.515	-18.82
816.689	4.32
816.863	-25.67
817.037	-10.68
817.21	-14.56
817.384	5.25
817.558	-26.6
817.732	-13.45
817.906	-31.22
818.079	1.91
818.253	-22.52
818.427	6.54
818.601	-0.31
818.774	10.43
818.948	-14.19
819.122	5.62
819.295	8.21
819.469	-14.38
819.643	-26.6
819.816	-9.56
819.99	0.25
820.163	3.02
820.337	-6.6
820.511	-17.53
820.684	-1.97
820.858	-22.15
821.031	-18.82
821.205	-13.45
821.378	-0.31
821.551	-17.71
821.725	4.69
821.898	4.5
822.072	-43.81
822.245	-2.53
822.418	-22.89
822.592	-5.86
822.765	-27.71
822.938	-4.38
823.112	-21.41
823.285	-9.75
823.458	-20.3
823.631	-34.37
823.805	-6.79
823.978	-1.79
824.151	-14.38
824.324	2.28
824.497	-6.05
824.671	-31.04
824.844	-3.83
825.017	-24
825.19	-2.53
825.363	-11.05
825.536	-28.08
825.709	-18.45
825.882	-3.09
826.055	-23.82
826.228	-36.22
826.401	-14.19
826.574	-36.22
826.747	-9.19
826.92	-23.63
827.093	-6.42
827.266	-24
827.439	-14.75
827.612	-1.42
827.785	24.87
827.957	-11.05
828.13	-12.34
828.303	-18.27
828.476	15.61
828.649	-3.83
828.821	13.95
828.994	-22.89
829.167	0.62
829.34	-19.56
829.512	24.13
829.685	-26.78
829.858	-30.48
830.03	-14.01
830.203	5.62
830.375	-19.01
830.548	8.95
830.721	-2.34
830.893	-14.93
831.066	-6.97
831.238	2.65
831.411	-5.68
831.583	4.5
831.756	-8.82
831.928	-15.3
832.101	-13.82
832.273	-0.68
832.446	-17.71
832.618	0.43
832.79	-12.9
832.963	4.5
833.135	-15.3
833.307	-2.9
833.48	8.95
833.652	2.1
833.824	0.43
833.997	-7.53
834.169	-4.75
834.341	9.32
834.513	-10.49
834.686	-23.26
834.858	-12.53
835.03	6.91
835.202	-16.6
835.374	-9.56
835.546	-4.75
835.718	-7.71
835.891	-7.16
836.063	24.87
836.235	-12.71
836.407	-15.3
836.579	0.43
836.751	6.73
836.923	-20.86
837.095	5.25
837.267	-24
837.439	-16.23
837.611	-11.05
837.782	11.72
837.954	-14.93
838.126	1.91
838.298	-12.9
838.47	-31.04
838.642	-9.19
838.814	-15.86
838.985	-19.19
839.157	-21.41
839.329	-2.34
839.501	-16.23
839.672	-4.94
839.844	4.87
840.016	-24.56
840.188	1.17
840.359	-6.6
840.531	-19.01
840.702	-26.97
840.874	-15.12
841.046	-18.08
841.217	-25.67
841.389	0.06
841.56	-17.16
841.732	-11.6
841.903	20.06
842.075	-38.63
842.246	-16.04
842.418	-8.45
842.589	-1.42
842.761	-9.56
842.932	1.17
843.104	-11.23
843.275	-5.86
843.446	-13.45
843.618	-0.12
843.789	-37.89
843.96	-13.08
844.132	1.17
844.303	-9.56
844.474	-15.12
844.646	-15.86
844.817	-20.12
844.988	-22.34
845.159	-39.19
845.331	3.21
845.502	-25.86
845.673	-27.34
845.844	-4.75
846.015	-11.42
846.186	-33.63
846.357	23.94
846.528	-36.04
846.7	-21.04
846.871	-14.56
847.042	-4.01
847.213	-29.37
847.384	11.91
847.555	-16.41
847.726	-5.86
847.897	-6.42
848.067	-3.46
848.238	-4.94
848.409	-33.26
848.58	3.21
848.751	-4.2
848.922	-11.42
849.093	20.43
849.264	-9.38
849.434	5.99
849.605	-14.93
849.776	-10.31
849.947	-7.34
850.117	-9.75
850.288	-1.97
850.459	-1.79
850.63	-6.97
850.8	-8.27
850.971	-33.82
851.142	4.69
851.312	-32.71
851.483	-4.2
851.653	-4.94
851.824	-2.9
851.995	-8.64
852.165	-6.79
852.336	-32.89
852.506	3.76
852.677	2.28
852.847	-17.53
853.018	-21.41
853.188	-0.68
853.358	-38.63
853.529	-16.04
853.699	-21.78
853.87	9.32
854.04	-21.23
854.21	17.09
854.381	-36.04
854.551	10.43
854.721	-20.49
854.892	-4.94
855.062	-2.9
855.232	-0.31
855.402	-16.23
855.573	17.28
855.743	-19.93
855.913	-7.71
856.083	-14.01
856.253	15.43
856.423	-10.12
856.594	-13.45
856.764	-9.94
856.934	-5.12
857.104	-4.75
857.274	-12.71
857.444	-12.53
857.614	-6.79
857.784	-28.08
857.954	7.47
858.124	-32.34
858.294	-24.93
858.464	-7.9
858.634	-1.79
858.804	-24.75
858.974	11.35
859.143	-40.85
859.313	0.62
859.483	-13.64
859.653	4.87
859.823	-16.41
859.993	5.06
860.162	-18.27
860.332	2.47
860.502	-26.04
860.672	8.02
860.841	0.99
861.011	4.32
861.181	-11.05
861.35	-5.68
861.52	15.43
861.69	-23.26
861.859	-6.6
862.029	0.62
862.198	-29.74
862.368	6.54
862.538	-44.18
862.707	-12.9
862.877	-24.56
863.046	-3.83
863.216	-13.45
863.385	5.43
863.555	-16.6
863.724	2.1
863.893	-31.22
864.063	-5.12
864.232	-23.26
864.402	-19.93
864.571	-24.37
864.74	-14.75
864.91	-22.34
865.079	5.99
865.248	-28.82
865.418	4.87
865.587	3.95
865.756	-9.19
865.925	-11.97
866.094	-19.01
866.264	-9.56
866.433	18.39
866.602	-8.82
866.771	-12.16
866.94	-4.2
867.109	5.62
867.278	-7.53
867.448	-6.23
867.617	-32.15
867.786	-2.9
867.955	-8.27
868.124	4.32
868.293	-11.05
868.462	10.8
868.631	-15.67
868.8	-20.67
868.969	0.43
869.137	-8.64
869.306	-40.48
869.475	-12.53
869.644	-10.86
869.813	-9.94
869.982	-11.42
870.151	-4.75
870.319	-29
870.488	-34.37
870.657	-22.52
870.826	0.43
870.995	14.69
871.163	-22.34
871.332	-10.68
871.501	2.1
871.669	-13.45
871.838	-13.82
872.007	-29.93
872.175	-20.49
872.344	-4.75
872.512	8.21
872.681	-21.41
872.85	0.06
873.018	-0.49
873.187	8.58
873.355	1.17
873.524	-10.86
873.692	-1.42
873.861	3.95
874.029	-17.9
874.197	-6.6
874.366	5.25
874.534	-14.93
874.703	-18.27
874.871	-13.82
875.039	-4.01
875.208	-14.38
875.376	-13.64
875.544	-23.08
875.713	-16.41
875.881	-12.16
876.049	-22.34
876.217	0.43
876.386	-21.23
876.554	-14.75
876.722	-24.19
876.89	-6.23
877.058	-1.42
877.226	0.8
877.395	-5.49
877.563	3.95
877.731	-18.08
877.899	-9.56
878.067	-13.45
878.235	-7.71
878.403	-12.34
878.571	7.65
878.739	-6.05
878.907	-8.64
879.075	-24.19
879.243	-0.12
879.411	5.43
879.579	1.17
879.747	-7.71
879.914	11.35
880.082	3.95
880.25	21.35
880.418	4.69
880.586	-14.93
880.754	-4.75
880.921	4.32
881.089	-15.86
881.257	-3.46
881.425	-6.23
881.592	-4.75
881.76	-26.6
881.928	1.17
882.095	-18.64
882.263	-3.27
882.431	5.06
882.598	-14.01
882.766	-14.38
882.933	-13.27
883.101	-29.93
883.269	-5.68
883.436	-29.74
883.604	-17.34
883.771	3.95
883.939	-4.2
884.106	-14.01
884.273	-8.82
884.441	-19.01
884.608	-27.71
884.776	-21.6
884.943	5.06
885.11	-15.67
885.278	1.54
885.445	-22.34
885.613	-13.64
885.78	-10.12
885.947	-5.49
886.114	-31.59
886.282	15.43
886.449	-9.56
886.616	-7.9
886.783	-33.63
886.951	-7.9
887.118	-11.6
887.285	9.69
887.452	6.36
887.619	-25.49
887.786	-13.27
887.953	-2.72
888.12	-30.3
888.287	1.54
888.455	-1.97
888.622	-2.53
888.789	-39.37
888.956	-21.23
889.123	-32.52
889.29	-2.34
889.456	-30.85
889.623	-6.79
889.79	2.1
889.957	-21.41
890.124	-18.45
890.291	0.8
890.458	-9.38
890.625	-17.9
890.791	-6.97
890.958	8.58
891.125	-15.3
891.292	-10.86
891.459	-2.53
891.625	11.72
891.792	-22.89
891.959	-47.33
892.125	-31.41
892.292	-26.6
892.459	-28.26
892.625	1.91
892.792	-12.16
892.959	0.43
893.125	-24.37
893.292	-17.16
893.458	-25.12
893.625	-13.45
893.791	-34.93
893.958	-1.23
894.124	4.32
894.291	-1.23
894.457	-33.63
894.624	13.95
894.79	-20.67
894.957	-3.46
895.123	-39.19
895.289	-5.12
895.456	-26.04
895.622	-14.75
895.788	-17.53
895.955	-27.34
896.121	-26.04
896.287	2.28
896.454	-11.42
896.62	-13.45
896.786	-18.08
896.952	-12.34
897.119	-8.45
897.285	-3.09
897.451	-16.97
897.617	-31.22
897.783	-13.27
897.949	-7.71
898.115	-18.64
898.281	4.5
898.448	-5.68
898.614	-3.46
898.78	9.5
898.946	-19.56
899.112	-7.34
899.278	-14.75
899.444	-19.75
899.61	-11.23
899.775	-30.85
899.941	-9.01
900.107	-5.49
900.273	-8.82
900.439	-1.42
900.605	23.2
900.771	2.47
900.937	-7.9
901.102	-38.63
901.268	0.62
901.434	-31.97
901.6	8.58
901.766	-17.34
901.931	2.28
902.097	-20.12
902.263	2.28
902.428	-17.9
902.594	-9.01
902.76	-2.72
902.925	20.61
903.091	-34.56
903.256	-5.31
903.422	-14.93
903.588	-6.23
903.753	-14.56
903.919	-11.23
904.084	2.1
904.25	9.5
904.415	-21.6
904.581	-18.64
904.746	-31.04
904.912	-1.79
905.077	-2.9
905.242	13.21
905.408	-16.41
905.573	-6.79
905.738	7.65
905.904	-4.01
906.069	-4.01
