Data from FLMT087451__26__14-25-09-623.txt Node

Date: Tue Jun 04 14:25:09 JST 2024
User: power
Spectrometer: FLMT08745
Trigger mode: 0
Integration Time (sec): 1.000000E-1
Scans to average: 11
Electric dark correction enabled: true
Nonlinearity correction enabled: false
Boxcar width: 0
XAxis mode: Wavelengths
Number of Pixels in Spectrum: 3648
>>>>>Begin Spectral Data<<<<<
194.923	-159.83
195.148	-159.83
195.372	-159.83
195.597	-190
195.821	-175.01
196.046	25.12
196.271	-41.72
196.495	-33.2
196.72	15.3
196.944	-22.28
197.169	-1.36
197.393	47.7
197.618	29.37
197.842	15.49
198.067	5.86
198.291	-72.82
198.516	32.52
198.74	-53.93
198.964	72.51
199.189	61.03
199.413	76.95
199.637	62.51
199.862	30.85
200.086	61.22
200.31	157.3
200.535	23.45
200.759	142.86
200.983	9.94
201.207	15.12
201.432	25.3
201.656	108.42
201.88	16.23
202.104	27.15
202.328	75.47
202.552	73.99
202.777	52.51
203.001	78.25
203.225	11.6
203.449	-46.53
203.673	55.11
203.897	52.14
204.121	32.71
204.345	88.06
204.569	11.97
204.793	46.96
205.017	50.29
205.241	60.84
205.465	16.04
205.689	32.52
205.912	36.78
206.136	-12.28
206.36	34
206.584	70.84
206.808	-1.73
207.032	84.54
207.255	80.1
207.479	100.09
207.703	33.63
207.927	48.81
208.15	-1.17
208.374	36.59
208.598	15.49
208.822	54.37
209.045	42.33
209.269	49.37
209.492	146.93
209.716	143.23
209.94	63.07
210.163	107.87
210.387	93.61
210.61	88.61
210.834	33.82
211.057	62.88
211.281	13.45
211.504	23.08
211.728	39.19
211.951	146.19
212.175	100.09
212.398	40.48
212.622	42.89
212.845	155.44
213.068	26.97
213.292	65.66
213.515	14.19
213.738	39.74
213.962	30.3
214.185	11.79
214.408	67.88
214.631	85.47
214.855	63.81
215.078	31.78
215.301	74.91
215.524	37.89
215.747	79.36
215.971	36.78
216.194	35.3
216.417	73.8
216.64	86.02
216.863	422.4
217.086	56.77
217.309	29.93
217.532	93.8
217.755	15.49
217.978	73.25
218.201	141.74
218.424	113.24
218.647	22.89
218.87	16.23
219.093	75.1
219.316	88.61
219.539	59.36
219.762	44.37
219.985	71.4
220.207	-9.69
220.43	79.73
220.653	88.06
220.876	56.77
221.099	137.12
221.321	45.29
221.544	56.4
221.767	100.28
221.99	36.04
222.212	71.77
222.435	75.84
222.658	108.42
222.88	14.19
223.103	146.93
223.326	6.42
223.548	62.33
223.771	47.89
223.993	43.81
224.216	56.22
224.438	68.81
224.661	54.92
224.883	98.43
225.106	146.56
225.328	50.66
225.551	86.76
225.773	49.55
225.996	46.03
226.218	60.29
226.44	74.91
226.663	72.88
226.885	39
227.108	66.21
227.33	90.46
227.552	65.1
227.774	52.88
227.997	77.51
228.219	54.74
228.441	106.02
228.663	143.23
228.886	49.37
229.108	56.22
229.33	54
229.552	10.49
229.774	99.72
229.996	60.47
230.219	120.64
230.441	52.51
230.663	95.65
230.885	38.07
231.107	86.95
231.329	93.61
231.551	111.75
231.773	52.14
231.995	81.39
232.217	65.47
232.439	33.63
232.661	67.14
232.883	67.14
233.105	54.18
233.326	25.86
233.548	108.79
233.77	49.55
233.992	128.42
234.214	34.19
234.436	20.49
234.657	89.54
234.879	160.26
235.101	36.22
235.323	73.62
235.544	67.14
235.766	134.15
235.988	117.12
236.21	110.64
236.431	128.6
236.653	103.42
236.874	139.34
237.096	70.84
237.318	17.53
237.539	82.5
237.761	83.62
237.982	71.03
238.204	152.85
238.425	49.92
238.647	98.06
238.868	38.26
239.09	124.34
239.311	14.38
239.533	65.66
239.754	128.05
239.975	57.7
240.197	72.32
240.418	89.54
240.64	75.47
240.861	94.35
241.082	82.5
241.304	94.91
241.525	53.07
241.746	53.62
241.967	6.79
242.189	66.77
242.41	118.05
242.631	202.1
242.852	51.4
243.073	137.86
243.294	50.11
243.516	94.17
243.737	102.5
243.958	18.27
244.179	76.4
244.4	183.77
244.621	59.36
244.842	93.43
245.063	139.71
245.284	92.32
245.505	95.65
245.726	98.43
245.947	123.79
246.168	39.19
246.389	56.96
246.61	138.23
246.831	152.3
247.052	84.91
247.272	95.65
247.493	69.55
247.714	142.12
247.935	19.56
248.156	118.42
248.376	138.04
248.597	138.04
248.818	72.69
249.039	86.76
249.259	90.65
249.48	40.85
249.701	113.05
249.921	69.36
250.142	63.81
250.363	116.01
250.583	91.76
250.804	104.16
251.025	152.11
251.245	115.27
251.466	134.9
251.686	102.13
251.907	58.44
252.127	117.12
252.348	102.13
252.568	65.47
252.789	130.27
253.009	119.71
253.23	172.29
253.45	110.83
253.67	116.94
253.891	58.07
254.111	158.96
254.331	96.76
254.552	119.71
254.772	108.42
254.992	87.13
255.213	56.4
255.433	116.57
255.653	78.62
255.873	101.02
256.093	118.05
256.314	59.36
256.534	53.44
256.754	184.32
256.974	78.99
257.194	93.43
257.414	82.69
257.634	106.57
257.855	55.11
258.075	40.67
258.295	63.62
258.515	85.47
258.735	118.42
258.955	88.61
259.175	80.65
259.395	86.95
259.615	138.78
259.835	121.57
260.054	93.43
260.274	130.82
260.494	140.82
260.714	189.51
260.934	99.72
261.154	109.72
261.374	81.76
261.593	94.17
261.813	34.56
262.033	73.43
262.253	67.32
262.472	101.76
262.692	88.06
262.912	126.19
263.132	114.9
263.351	124.16
263.571	171.55
263.791	95.83
264.01	174.51
264.23	120.09
264.449	88.43
264.669	174.7
264.888	161.37
265.108	91.02
265.328	165.26
265.547	85.47
265.767	118.6
265.986	14.56
266.205	113.79
266.425	95.65
266.644	141.93
266.864	33.63
267.083	155.07
267.303	93.24
267.522	83.99
267.741	86.76
267.961	121.75
268.18	48.81
268.399	125.08
268.618	109.53
268.838	127.49
269.057	77.14
269.276	87.13
269.495	109.9
269.715	113.24
269.934	54.92
270.153	135.82
270.372	30.11
270.591	143.23
270.81	136.75
271.029	120.27
271.249	93.8
271.468	46.03
271.687	138.78
271.906	96.57
272.125	168.4
272.344	125.64
272.563	96.57
272.782	80.1
273.001	88.24
273.22	93.61
273.439	117.12
273.657	118.79
273.876	150.26
274.095	18.82
274.314	143.97
274.533	145.45
274.752	58.99
274.971	135.64
275.189	181.73
275.408	127.31
275.627	104.72
275.846	151.37
276.064	85.47
276.283	54.18
276.502	117.49
276.72	74.73
276.939	80.65
277.158	70.29
277.376	67.51
277.595	125.08
277.814	54.18
278.032	117.12
278.251	76.77
278.469	68.43
278.688	90.84
278.906	183.95
279.125	82.69
279.343	62.7
279.562	100.28
279.78	41.04
279.999	81.58
280.217	105.83
280.435	116.94
280.654	45.29
280.872	112.68
281.091	106.94
281.309	89.17
281.527	134.52
281.746	100.28
281.964	61.03
282.182	96.57
282.4	86.76
282.619	179.51
282.837	135.64
283.055	70.29
283.273	48.07
283.491	112.31
283.71	108.05
283.928	96.2
284.146	80.1
284.364	90.84
284.582	80.28
284.8	113.79
285.018	77.88
285.236	18.64
285.454	146
285.672	105.83
285.89	77.51
286.108	36.59
286.326	83.06
286.544	108.61
286.762	47.52
286.98	18.82
287.198	151.37
287.416	221.53
287.634	151.37
287.851	92.5
288.069	93.06
288.287	104.53
288.505	46.03
288.723	107.5
288.94	93.43
289.158	82.13
289.376	145.26
289.594	81.58
289.811	48.26
290.029	88.06
290.247	162.29
290.464	109.9
290.682	27.89
290.9	118.05
291.117	80.28
291.335	80.84
291.552	36.22
291.77	100.65
291.987	54.74
292.205	84.54
292.422	95.65
292.64	143.41
292.857	52.33
293.075	114.35
293.292	82.5
293.51	121.94
293.727	75.65
293.945	108.42
294.162	80.47
294.379	82.32
294.597	105.83
294.814	91.02
295.031	86.76
295.249	134.34
295.466	86.58
295.683	101.76
295.9	90.09
296.118	84.91
296.335	50.85
296.552	131.19
296.769	146.93
296.986	125.08
297.204	107.31
297.421	63.62
297.638	87.87
297.855	123.97
298.072	88.8
298.289	110.46
298.506	45.48
298.723	126.38
298.94	114.9
299.157	92.69
299.374	77.14
299.591	141.37
299.808	36.04
300.025	30.85
300.242	51.22
300.459	105.09
300.676	55.48
300.893	66.21
301.109	106.2
301.326	151.56
301.543	121.75
301.76	79.54
301.977	49.18
302.193	77.51
302.41	125.08
302.627	38.26
302.844	39.37
303.06	69.36
303.277	66.03
303.494	117.31
303.71	96.39
303.927	128.79
304.144	80.47
304.36	123.97
304.577	108.24
304.793	137.86
305.01	102.87
305.227	108.05
305.443	137.3
305.66	211.35
305.876	77.88
306.093	92.13
306.309	141.93
306.526	41.96
306.742	129.9
306.958	138.41
307.175	95.28
307.391	85.47
307.608	108.24
307.824	140.63
308.04	124.9
308.257	103.24
308.473	205.61
308.689	95.09
308.905	151.74
309.122	85.84
309.338	57.7
309.554	107.5
309.77	97.87
309.986	128.42
310.203	32.52
310.419	102.31
310.635	102.5
310.851	48.26
311.067	123.97
311.283	118.23
311.499	40.85
311.715	90.65
311.931	135.64
312.147	126.38
312.363	34.74
312.579	129.9
312.795	110.27
313.011	70.66
313.227	68.06
313.443	143.6
313.659	117.86
313.875	59.92
314.091	128.6
314.307	118.42
314.523	73.25
314.738	94.91
314.954	123.23
315.17	66.77
315.386	95.65
315.602	75.1
315.817	52.51
316.033	82.13
316.249	83.43
316.465	104.53
316.68	61.59
316.896	78.25
317.112	39
317.327	50.29
317.543	196.17
317.758	71.21
317.974	101.57
318.19	104.16
318.405	62.88
318.621	97.5
318.836	59.55
319.052	39.56
319.267	114.16
319.483	46.78
319.698	101.57
319.914	55.85
320.129	86.39
320.344	116.38
320.56	111.38
320.775	161
320.99	81.02
321.206	85.84
321.421	104.35
321.636	97.13
321.852	93.06
322.067	71.03
322.282	51.77
322.498	56.03
322.713	103.98
322.928	126.93
323.143	72.88
323.358	84.91
323.574	128.05
323.789	56.77
324.004	46.78
324.219	78.06
324.434	131.01
324.649	80.65
324.864	114.9
325.079	71.58
325.294	60.84
325.509	51.03
325.724	131.75
325.939	74.17
326.154	89.72
326.369	216.54
326.584	78.8
326.799	78.25
327.014	115.83
327.229	63.44
327.444	87.13
327.659	53.81
327.873	85.47
328.088	115.83
328.303	44.92
328.518	61.03
328.733	33.08
328.947	78.99
329.162	50.29
329.377	93.24
329.591	111.75
329.806	86.58
330.021	70.66
330.235	172.85
330.45	120.27
330.665	54.92
330.879	78.06
331.094	134.52
331.309	104.72
331.523	128.23
331.738	133.04
331.952	146.56
332.167	188.21
332.381	149.89
332.596	193.95
332.81	230.61
333.025	284.48
333.239	405.55
333.453	410.92
333.668	484.04
333.882	500.7
334.097	425.73
334.311	373.89
334.525	305.58
334.74	220.79
334.954	141.93
335.168	192.65
335.382	152.11
335.597	112.31
335.811	68.81
336.025	102.87
336.239	49.55
336.453	134.9
336.668	97.5
336.882	52.7
337.096	139.15
337.31	96.39
337.524	152.11
337.738	103.98
337.952	113.61
338.166	84.54
338.38	104.16
338.594	152.67
338.808	100.46
339.022	205.43
339.236	121.57
339.45	125.82
339.664	208.02
339.878	99.35
340.092	73.62
340.306	53.81
340.52	148.04
340.734	143.78
340.948	128.05
341.161	147.67
341.375	164.33
341.589	152.85
341.803	154.33
342.017	161.55
342.23	118.42
342.444	220.79
342.658	163.59
342.871	183.95
343.085	125.82
343.299	96.2
343.512	133.78
343.726	110.64
343.94	174.51
344.153	159.89
344.367	191.17
344.58	105.65
344.794	121.2
345.008	87.69
345.221	100.28
345.435	149.52
345.648	118.05
345.862	128.97
346.075	129.9
346.288	122.31
346.502	214.87
346.715	177.66
346.929	75.28
347.142	203.95
347.355	166.18
347.569	190.06
347.782	220.61
347.995	186.36
348.209	194.32
348.422	136.01
348.635	246.53
348.848	233.2
349.062	217.28
349.275	351.49
349.488	315.76
349.701	380.93
349.914	270.96
350.128	379.82
350.341	407.03
350.554	308.73
350.767	329.65
350.98	367.23
351.193	295.58
351.406	260.04
351.619	240.05
351.832	243.56
352.045	214.87
352.258	170.44
352.471	260.04
352.684	242.08
352.897	319.84
353.11	348.72
353.323	514.96
353.536	479.6
353.748	736
353.961	770.06
354.174	884.29
354.387	926.86
354.6	864.48
354.813	762.47
355.025	651.58
355.238	505.89
355.451	373.52
355.664	300.21
355.876	294.66
356.089	243.01
356.302	202.1
356.514	186.18
356.727	171.18
356.94	142.3
357.152	154.7
357.365	141
357.577	125.82
357.79	110.64
358.002	79.73
358.215	108.42
358.427	140.82
358.64	191.54
358.852	100.09
359.065	108.79
359.277	128.97
359.49	194.88
359.702	198.02
359.915	136.56
360.127	128.42
360.339	138.97
360.552	133.23
360.764	137.3
360.976	193.4
361.189	100.83
361.401	193.4
361.613	193.95
361.825	86.76
362.038	170.99
362.25	211.72
362.462	141.19
362.674	172.85
362.886	250.78
363.099	200.99
363.311	255.6
363.523	239.12
363.735	262.08
363.947	228.2
364.159	267.08
364.371	250.78
364.583	207.28
364.795	206.91
365.007	236.9
365.219	206.72
365.431	198.21
365.643	181.18
365.855	133.6
366.067	139.89
366.279	172.11
366.491	175.25
366.703	183.58
366.914	212.28
367.126	206.35
367.338	269.67
367.55	273.18
367.762	250.23
367.974	221.72
368.185	163.22
368.397	226.35
368.609	213.76
368.82	173.22
369.032	179.14
369.244	112.87
369.456	213.57
369.667	152.48
369.879	203.58
370.09	135.45
370.302	199.5
370.514	242.45
370.725	242.45
370.937	177.66
371.148	220.61
371.36	289.29
371.571	310.58
371.783	330.39
371.994	404.62
372.206	399.81
372.417	460.53
372.629	348.72
372.84	280.77
373.051	221.72
373.263	280.22
373.474	205.61
373.685	158.41
373.897	153.22
374.108	174.88
374.319	119.34
374.531	161.92
374.742	177.47
374.953	173.77
375.164	133.04
375.375	173.03
375.587	146.74
375.798	226.72
376.009	278.37
376.22	341.5
376.431	293.92
376.642	351.31
376.853	457.38
377.065	470.53
377.276	426.65
377.487	402.4
377.698	337.05
377.909	332.24
378.12	307.43
378.331	229.31
378.542	168.22
378.753	165.26
378.964	155.07
379.174	192.1
379.385	155.26
379.596	91.21
379.807	173.03
380.018	102.31
380.229	191.91
380.44	230.42
380.65	121.75
380.861	183.77
381.072	172.85
381.283	184.88
381.493	235.6
381.704	210.06
381.915	175.07
382.126	111.75
382.336	223.94
382.547	237.83
382.757	179.51
382.968	127.49
383.179	163.77
383.389	221.53
383.6	212.09
383.81	173.96
384.021	281.14
384.231	306.88
384.442	180.25
384.652	215.61
384.863	291.51
385.073	262.63
385.284	315.02
385.494	287.44
385.705	273.55
385.915	308.73
386.125	314.1
386.336	355.38
386.546	346.49
386.756	480.53
386.967	435.35
387.177	549.39
387.387	594.38
387.598	621.59
387.808	722.86
388.018	804.5
388.228	773.4
388.439	799.68
388.649	616.59
388.859	517.37
389.069	496.63
389.279	351.86
389.489	320.95
389.699	240.6
389.909	226.16
390.12	174.51
390.33	216.54
390.54	218.57
390.75	250.04
390.96	197.1
391.17	181.18
391.38	175.44
391.59	144.89
391.799	160.81
392.009	223.94
392.219	214.5
392.429	147.67
392.639	192.84
392.849	174.51
393.059	228.75
393.269	238.38
393.478	216.91
393.688	262.08
393.898	286.7
394.108	163.96
394.317	200.99
394.527	173.96
394.737	215.05
394.947	201.54
395.156	155.07
395.366	208.21
395.576	261.71
395.785	227.09
395.995	242.45
396.204	259.3
396.414	178.96
396.624	220.42
396.833	186.36
397.043	205.8
397.252	160.44
397.462	281.14
397.671	168.59
397.881	104.9
398.09	146.19
398.299	93.06
398.509	138.78
398.718	128.23
398.928	133.04
399.137	163.59
399.346	140.08
399.556	145.45
399.765	85.28
399.974	89.54
400.184	165.44
400.393	174.33
400.602	161.74
400.811	203.58
401.021	156.74
401.23	214.31
401.439	196.73
401.648	205.06
401.857	173.4
402.066	171.92
402.276	213.2
402.485	256.34
402.694	215.43
402.903	225.98
403.112	175.44
403.321	235.42
403.53	197.1
403.739	133.78
403.948	149.71
404.157	198.02
404.366	154.33
404.575	152.11
404.784	213.39
404.993	192.1
405.202	255.6
405.411	225.24
405.619	138.04
405.828	182.29
406.037	196.17
406.246	165.07
406.455	131.38
406.663	188.95
406.872	149.71
407.081	171.55
407.29	187.29
407.498	168.4
407.707	155.44
407.916	164.52
408.124	220.42
408.333	262.82
408.542	127.31
408.75	190.62
408.959	141.74
409.168	164.33
409.376	133.6
409.585	158.59
409.793	269.48
410.002	161.92
410.21	195.25
410.419	179.7
410.627	156.93
410.836	153.41
411.044	141.37
411.253	142.12
411.461	145.45
411.669	179.14
411.878	176.92
412.086	79.54
412.294	157.67
412.503	69.55
412.711	146.19
412.919	158.96
413.128	125.08
413.336	70.66
413.544	168.22
413.752	164.89
413.961	179.33
414.169	129.9
414.377	184.14
414.585	241.34
414.793	130.82
415.001	99.91
415.209	145.82
415.418	132.3
415.626	238.75
415.834	157.11
416.042	191.73
416.25	157.11
416.458	168.96
416.666	223.76
416.874	264.85
417.082	278.55
417.29	216.72
417.498	196.17
417.706	191.54
417.913	166.74
418.121	172.66
418.329	259.49
418.537	157.3
418.745	101.39
418.953	181.92
419.161	211.35
419.368	169.88
419.576	99.91
419.784	143.04
419.992	127.86
420.199	215.24
420.407	141
420.615	205.8
420.822	189.51
421.03	147.11
421.238	191.73
421.445	113.79
421.653	104.9
421.861	188.95
422.068	142.86
422.276	217.09
422.483	153.41
422.691	199.13
422.898	336.13
423.106	191.36
423.313	188.77
423.521	289.11
423.728	293.73
423.936	299.29
424.143	328.35
424.35	388.33
424.558	336.87
424.765	330.2
424.973	282.81
425.18	227.64
425.387	259.11
425.594	226.53
425.802	290.03
426.009	172.11
426.216	150.82
426.424	158.04
426.631	185.8
426.838	132.3
427.045	123.42
427.252	158.59
427.459	205.43
427.667	182.84
427.874	117.49
428.081	166.74
428.288	170.99
428.495	123.23
428.702	210.8
428.909	141.37
429.116	81.39
429.323	167.11
429.53	156.37
429.737	106.39
429.944	176.36
430.151	144.89
430.358	208.02
430.565	170.81
430.772	91.76
430.979	144.34
431.185	123.42
431.392	133.04
431.599	179.14
431.806	137.67
432.013	164.33
432.219	145.08
432.426	185.25
432.633	130.27
432.84	140.82
433.046	148.41
433.253	153.41
433.46	172.29
433.666	111.57
433.873	169.7
434.08	197.65
434.286	162.48
434.493	214.87
434.7	136.75
434.906	206.17
435.113	153.78
435.319	247.27
435.526	126.01
435.732	217.46
435.939	185.8
436.145	104.9
436.352	179.51
436.558	143.97
436.765	234.86
436.971	137.67
437.177	154.15
437.384	69.55
437.59	112.12
437.796	159.15
438.003	138.23
438.209	223.2
438.415	154.89
438.622	177.29
438.828	203.58
439.034	176.73
439.24	131.01
439.447	156.74
439.653	128.23
439.859	98.43
440.065	151.74
440.271	97.87
440.477	145.26
440.683	112.68
440.89	104.35
441.096	204.13
441.302	176.73
441.508	203.76
441.714	92.87
441.92	110.64
442.126	106.02
442.332	159.89
442.538	133.23
442.744	136.75
442.95	170.99
443.156	139.15
443.361	191.54
443.567	113.42
443.773	170.81
443.979	193.21
444.185	107.13
444.391	101.2
444.596	122.12
444.802	113.42
445.008	279.48
445.214	119.9
445.42	215.43
445.625	130.82
445.831	194.51
446.037	226.16
446.242	230.24
446.448	288.36
446.654	389.63
446.859	436.65
447.065	462.2
447.27	540.32
447.476	451.83
447.682	334.09
447.887	366.3
448.093	353.16
448.298	259.49
448.504	265.04
448.709	275.59
448.915	383.33
449.12	355.94
449.325	425.54
449.531	413.14
449.736	395.92
449.942	322.06
450.147	305.77
450.352	306.88
450.558	263.37
450.763	254.3
450.968	315.02
451.174	167.66
451.379	162.11
451.584	189.51
451.789	156.74
451.995	190.8
452.2	107.5
452.405	90.09
452.61	129.53
452.815	174.33
453.02	122.49
453.226	129.16
453.431	193.21
453.636	138.78
453.841	160.07
454.046	167.66
454.251	212.65
454.456	275.04
454.661	494.04
454.866	633.07
455.071	781.17
455.276	839.86
455.481	822.08
455.686	691.57
455.891	550.32
456.095	507.74
456.3	443.5
456.505	347.98
456.71	403.51
456.915	292.62
457.12	265.04
457.324	182.47
457.529	200.61
457.734	224.13
457.939	154.52
458.144	155.26
458.348	170.99
458.553	419.25
458.758	791.17
458.962	1250.28
459.167	1556.48
459.372	1747.16
459.576	1876.56
459.781	1554.81
459.985	1255.83
460.19	1111.62
460.394	937.23
460.599	868.36
460.803	650.66
461.008	564.94
461.212	409.07
461.417	360.19
461.621	260.78
461.826	245.97
462.03	138.78
462.235	183.21
462.439	208.02
462.643	328.72
462.848	289.48
463.052	329.28
463.256	943.71
463.461	2175.73
463.665	3476.61
463.869	4449.44
464.074	4999.45
464.278	5123.49
464.482	4474.62
464.686	3452.72
464.89	3117.28
465.095	2791.64
465.299	2232
465.503	1886.37
465.707	1579.8
465.911	1457.99
466.115	1568.33
466.319	1592.76
466.523	1628.12
466.727	1579.43
466.931	1493.91
467.135	1204.18
467.339	1061.64
467.543	904.46
467.747	817.27
467.951	690.83
468.155	523.1
468.359	499.78
468.563	366.12
468.767	332.24
468.971	218.2
469.175	234.31
469.379	212.83
469.582	368.71
469.786	609.56
469.99	843
470.194	1022.39
470.397	1211.03
470.601	1173.82
470.805	1065.71
471.009	816.34
471.212	735.81
471.416	651.4
471.62	583.27
471.823	481.27
472.027	434.06
472.23	246.71
472.434	369.08
472.638	238.2
472.841	216.17
473.045	171.55
473.248	131.01
473.452	191.36
473.655	205.61
473.859	161
474.062	135.08
474.266	179.14
474.469	128.97
474.672	145.08
474.876	166.18
475.079	135.82
475.283	240.42
475.486	347.05
475.689	587.34
475.893	778.39
476.096	957.04
476.299	962.59
476.502	948.34
476.706	847.63
476.909	829.49
477.112	1041.64
477.315	1064.78
477.519	1128.84
477.722	1124.39
477.925	973.15
478.128	834.67
478.331	688.42
478.534	570.31
478.737	566.79
478.94	479.79
479.143	415.92
479.346	653.99
479.549	813.75
479.752	835.6
479.955	805.98
480.158	886.69
480.361	773.21
480.564	788.21
480.767	887.06
480.97	978.33
481.173	997.03
481.376	1083.3
481.579	943.53
481.782	780.06
481.984	639.36
482.187	612.71
482.39	533.84
482.593	450.54
482.796	391.29
482.998	311.88
483.201	300.95
483.404	247.27
483.606	134.9
483.809	265.78
484.012	202.28
484.214	189.88
484.417	201.73
484.62	175.99
484.822	121.01
485.025	230.42
485.227	257.45
485.43	197.84
485.632	176.36
485.835	246.71
486.037	243.01
486.24	160.07
486.442	334.83
486.645	185.43
486.847	213.02
487.05	228.94
487.252	239.68
487.455	225.05
487.657	293.36
487.859	583.64
488.062	1099.77
488.264	1568.51
488.466	2102.23
488.668	2923.82
488.871	3345.72
489.073	3491.6
489.275	3434.21
489.477	3328.51
489.68	2839.22
489.882	2331.79
490.084	1987.27
490.286	1741.05
490.488	1384.87
490.69	1080.52
490.893	921.68
491.095	599.01
491.297	551.43
491.499	441.83
491.701	342.42
491.903	270.22
492.105	228.94
492.307	213.02
492.509	312.43
492.711	148.59
492.913	226.53
493.115	220.24
493.317	185.99
493.518	205.43
493.72	193.58
493.922	172.11
494.124	173.03
494.326	226.9
494.528	133.6
494.73	203.39
494.931	222.09
495.133	131.93
495.335	197.47
495.537	192.1
495.738	244.49
495.94	211.54
496.142	124.9
496.343	161.37
496.545	150.82
496.747	173.96
496.948	168.96
497.15	185.99
497.351	147.3
497.553	135.64
497.755	152.3
497.956	259.67
498.158	163.77
498.359	207.28
498.561	152.11
498.762	189.69
498.964	392.96
499.165	803.94
499.366	1103.47
499.568	1288.05
499.769	1508.53
499.971	1532.6
500.172	1331.92
500.373	1102.36
500.575	965.19
500.776	907.43
500.977	753.22
501.178	653.06
501.38	540.88
501.581	516.63
501.782	361.12
501.983	347.42
502.185	250.78
502.386	205.06
502.587	178.96
502.788	203.21
502.989	173.59
503.19	206.72
503.391	193.95
503.593	161.37
503.794	135.64
503.995	166.92
504.196	252.64
504.397	223.02
504.598	160.63
504.799	147.85
505	228.75
505.201	226.16
505.402	173.77
505.602	156.37
505.803	149.71
506.004	134.9
506.205	199.87
506.406	214.31
506.607	155.26
506.808	225.79
507.008	184.51
507.209	193.95
507.41	223.02
507.611	119.71
507.812	146.37
508.012	111.94
508.213	140.45
508.414	110.83
508.614	161.74
508.815	132.67
509.016	240.05
509.216	231.9
509.417	217.65
509.617	188.21
509.818	177.84
510.019	220.24
510.219	158.78
510.42	110.83
510.62	198.02
510.821	199.13
511.021	223.02
511.222	196.73
511.422	223.2
511.623	188.4
511.823	232.83
512.023	144.52
512.224	241.71
512.424	117.86
512.624	171.55
512.825	127.12
513.025	222.83
513.225	152.3
513.426	185.62
513.626	123.23
513.826	202.47
514.026	225.24
514.227	193.02
514.427	186.73
514.627	138.41
514.827	171.18
515.027	244.86
515.228	186.73
515.428	206.72
515.628	173.96
515.828	223.02
516.028	178.4
516.228	242.82
516.428	215.43
516.628	187.1
516.828	140.63
517.028	209.69
517.228	140.26
517.428	136.56
517.628	199.32
517.828	232.27
518.028	256.71
518.228	174.33
518.428	195.99
518.627	178.4
518.827	181.73
519.027	203.95
519.227	240.42
519.427	244.49
519.626	186.18
519.826	202.28
520.026	178.77
520.226	213.02
520.425	233.2
520.625	130.45
520.825	139.52
521.024	225.42
521.224	177.47
521.424	200.61
521.623	161.74
521.823	166
522.023	206.72
522.222	182.1
522.422	162.85
522.621	233.57
522.821	201.17
523.02	206.91
523.22	205.24
523.419	240.97
523.619	196.54
523.818	159.89
524.017	183.77
524.217	196.36
524.416	240.97
524.616	333.91
524.815	144.71
525.014	188.03
525.214	181.73
525.413	178.96
525.612	254.12
525.812	173.03
526.011	186.73
526.21	224.5
526.409	199.5
526.608	286.33
526.808	172.85
527.007	211.35
527.206	247.27
527.405	163.03
527.604	163.96
527.803	213.57
528.003	167.85
528.202	216.54
528.401	285.4
528.6	179.88
528.799	160.44
528.998	162.48
529.197	196.17
529.396	160.81
529.595	221.53
529.794	221.35
529.993	218.39
530.192	244.3
530.39	201.54
530.589	220.42
530.788	236.16
530.987	194.14
531.186	209.5
531.385	171.55
531.583	209.87
531.782	228.01
531.981	157.85
532.18	202.28
532.379	148.59
532.577	161.18
532.776	161.18
532.975	201.36
533.173	181.36
533.372	197.47
533.571	192.28
533.769	230.05
533.968	304.29
534.166	203.39
534.365	125.82
534.564	210.24
534.762	203.58
534.961	160.63
535.159	295.95
535.358	187.84
535.556	178.03
535.755	229.49
535.953	231.35
536.151	377.04
536.35	389.26
536.548	560.5
536.747	607.52
536.945	681.39
537.143	729.52
537.342	620.48
537.54	548.28
537.738	540.69
537.937	510.15
538.135	462.38
538.333	355.38
538.531	372.6
538.73	270.96
538.928	328.17
539.126	246.53
539.324	330.76
539.522	263.19
539.72	210.61
539.919	200.8
540.117	147.3
540.315	256.52
540.513	232.83
540.711	236.16
540.909	192.28
541.107	223.2
541.305	198.21
541.503	259.49
541.701	206.72
541.899	190.25
542.097	277.81
542.295	178.21
542.493	188.58
542.691	143.6
542.888	194.32
543.086	158.22
543.284	119.16
543.482	243.56
543.68	225.79
543.878	266.52
544.075	162.29
544.273	183.4
544.471	170.81
544.669	232.64
544.866	215.05
545.064	222.27
545.262	181.73
545.459	199.69
545.657	234.68
545.855	196.17
546.052	117.68
546.25	202.47
546.447	243.93
546.645	137.49
546.842	199.5
547.04	169.51
547.238	125.08
547.435	193.02
547.633	152.67
547.83	233.75
548.027	159.15
548.225	184.51
548.422	177.29
548.62	163.96
548.817	151.37
549.014	153.04
549.212	177.29
549.409	210.43
549.606	162.48
549.804	197.28
550.001	177.29
550.198	173.4
550.396	148.04
550.593	94.54
550.79	135.27
550.987	107.68
551.184	157.48
551.382	233.01
551.579	153.59
551.776	100.65
551.973	174.33
552.17	160.63
552.367	221.72
552.564	171.18
552.761	192.84
552.958	188.21
553.155	229.49
553.353	265.78
553.55	217.09
553.746	212.83
553.943	238.75
554.14	293.73
554.337	249.49
554.534	270.22
554.731	248.56
554.928	233.94
555.125	306.69
555.322	204.13
555.519	170.81
555.715	203.76
555.912	154.15
556.109	182.47
556.306	142.12
556.503	175.99
556.699	140.08
556.896	192.84
557.093	194.88
557.289	170.62
557.486	105.83
557.683	242.64
557.879	137.49
558.076	135.27
558.273	144.15
558.469	156.74
558.666	166
558.862	217.83
559.059	178.96
559.255	205.98
559.452	159.15
559.648	121.57
559.845	120.64
560.041	159.7
560.238	211.54
560.434	165.07
560.631	125.82
560.827	162.66
561.023	130.27
561.22	131.19
561.416	143.41
561.612	143.23
561.809	138.23
562.005	143.04
562.201	142.12
562.398	160.63
562.594	163.03
562.79	101.94
562.986	233.38
563.182	153.41
563.379	152.3
563.575	139.71
563.771	163.22
563.967	208.21
564.163	123.23
564.359	169.14
564.555	251.15
564.751	169.7
564.947	179.14
565.144	173.77
565.34	230.79
565.536	205.43
565.732	192.65
565.928	204.13
566.123	223.39
566.319	253.38
566.515	288.55
566.711	222.83
566.907	257.45
567.103	188.03
567.299	144.34
567.495	195.99
567.691	150.08
567.886	281.52
568.082	206.54
568.278	271.89
568.474	280.96
568.669	242.64
568.865	257.08
569.061	210.24
569.257	237.83
569.452	254.12
569.648	158.96
569.844	204.87
570.039	187.1
570.235	196.73
570.43	167.29
570.626	215.98
570.822	300.4
571.017	266.52
571.213	189.69
571.408	185.43
571.604	193.4
571.799	156.37
571.995	180.62
572.19	150.26
572.385	126.56
572.581	191.54
572.776	220.61
572.972	274.67
573.167	178.21
573.362	209.69
573.558	267.45
573.753	217.83
573.948	264.3
574.144	232.27
574.339	235.97
574.534	186.36
574.729	179.14
574.925	220.79
575.12	254.49
575.315	138.6
575.51	218.94
575.705	216.54
575.9	196.54
576.096	234.86
576.291	204.13
576.486	264.67
576.681	228.01
576.876	285.4
577.071	248.56
577.266	237.83
577.461	274.48
577.656	315.76
577.851	281.7
578.046	315.95
578.241	341.68
578.436	304.84
578.631	382.22
578.826	510.52
579.021	412.03
579.215	494.04
579.41	615.85
579.605	567.91
579.8	558.83
579.995	594.93
580.189	579.38
580.384	622.52
580.579	706.01
580.774	711.75
580.968	960.37
581.163	1954.13
581.358	5665.91
581.552	12459.66
581.747	19395.23
581.942	25149.69
582.136	28827.03
582.331	30187.52
582.526	27673.14
582.72	23507.25
582.915	19921.91
583.109	17408.64
583.304	15381.32
583.498	13395.48
583.693	11157.12
583.887	9086.85
584.082	7213.75
584.276	6225.73
584.471	5757.54
584.665	5881.95
584.859	5991.91
585.054	6217.58
585.248	6269.05
585.442	5652.39
585.637	4707.32
585.831	4007.36
586.025	3595.27
586.22	3206.88
586.414	2800.34
586.608	2416.94
586.802	1971.53
586.997	1619.24
587.191	1290.45
587.385	1047.94
587.579	793.57
587.773	661.76
587.967	469.42
588.162	465.72
588.356	349.27
588.55	366.67
588.744	325.58
588.938	319.65
589.132	298.73
589.326	359.82
589.52	344.27
589.714	354.82
589.908	463.31
590.102	597.16
590.296	602.52
590.49	1012.95
590.684	2169.06
590.877	3633.96
591.071	4863.94
591.265	5878.62
591.459	6464.54
591.653	6364.94
591.847	5486.15
592.04	4650.12
592.234	4026.43
592.428	3582.5
592.622	3189.85
592.815	2798.3
593.009	2299.2
593.203	1962.46
593.397	1509.46
593.59	1286.93
593.784	1293.23
593.977	1404.67
594.171	1588.32
594.365	1797.33
594.558	1866.19
594.752	1752.71
594.945	1475.02
595.139	1295.08
595.332	1130.87
595.526	1058.67
595.719	943.53
595.913	853.18
596.106	725.08
596.3	631.59
596.493	569.57
596.687	475.34
596.88	460.72
597.073	407.4
597.267	308.91
597.46	298.92
597.653	324.83
597.847	307.06
598.04	285.03
598.233	346.68
598.426	197.47
598.62	283.55
598.813	258
599.006	486.63
599.199	917.05
599.392	1477.24
599.586	1944.5
599.779	2274.77
599.972	2501.36
600.165	2569.67
600.358	2183.13
600.551	2008.93
600.744	1684.4
600.937	1530.93
601.13	1370.24
601.323	1219.36
601.516	1042.57
601.709	877.99
601.902	728.41
602.095	638.81
602.288	502.37
602.481	409.99
602.674	336.68
602.867	391.48
603.06	346.12
603.252	328.17
603.445	760.25
603.638	1645.89
603.831	2828.29
604.024	3724.12
604.216	4538.3
604.409	4967.98
604.602	4802.48
604.795	4368.36
604.987	3708.57
605.18	3287.78
605.373	3055.81
605.565	3138.01
605.758	4255.06
605.951	5979.14
606.143	7548.82
606.336	8920.79
606.528	9652.78
606.721	9675.18
606.913	8489.26
607.106	7254.66
607.298	6180.19
607.491	5492.81
607.683	4877.45
607.876	4260.06
608.068	3593.98
608.261	3047.3
608.453	2392.32
608.646	1843.24
608.838	1293.97
609.03	1059.79
609.223	817.83
609.415	693.61
609.607	673.24
609.8	710.27
609.992	710.82
610.184	1059.23
610.376	2518.21
610.569	5482.26
610.761	8305.25
610.953	10967.73
611.145	12875.09
611.337	13829.41
611.529	12994.31
611.722	11210.62
611.914	9544.67
612.106	8398.18
612.298	7794.12
612.49	7942.77
612.682	8375.41
612.874	8584.6
613.066	8550.17
613.258	8456.31
613.45	7746.72
613.642	6584.13
613.834	5432.46
614.026	4539.23
614.218	3908.69
614.41	3526.22
614.602	3123.57
614.793	2808.86
614.985	2312.9
615.177	1857.31
615.369	1490.39
615.561	1102.73
615.753	885.58
615.944	711.19
616.136	567.53
616.328	462.01
616.52	417.21
616.711	381.3
616.903	409.81
617.095	439.24
617.286	331.31
617.478	359.82
617.67	446.28
617.861	1026.83
618.053	1718.09
618.244	2320.12
618.436	2864.76
618.627	3212.25
618.819	3296.66
619.01	3115.24
619.202	2663.72
619.393	2303.09
619.585	2072.42
619.776	1920.44
619.968	1636.08
620.159	1425.04
620.351	1139.57
620.542	903.17
620.733	743.22
620.925	514.03
621.116	412.58
621.307	310.21
621.499	360.01
621.69	314.1
621.881	261.15
622.072	287.25
622.264	249.49
622.455	465.16
622.646	1231.21
622.837	3006.76
623.028	5226.42
623.22	7005.48
623.411	8668.28
623.602	9558.74
623.793	9465.06
623.984	8427.99
624.175	7264.29
624.366	6293.48
624.557	5635.73
624.748	5015
624.939	4463.33
625.13	3722.45
625.321	3006.2
625.512	2310.68
625.703	1685.88
625.894	1270.09
626.085	826.71
626.276	607.52
626.467	618.63
626.658	964.26
626.848	1345.8
627.039	1601.09
627.23	1902.66
627.421	2127.41
627.612	2093.16
627.802	1970.24
627.993	1778.44
628.184	1772.89
628.375	1615.16
628.565	1547.78
628.756	1326.55
628.947	1260.46
629.137	1169.75
629.328	1029.24
629.519	1400.97
629.709	2271.25
629.9	2945.29
630.09	3701.16
630.281	4260.24
630.471	4467.03
630.662	4114.18
630.852	3611.01
631.043	3117.65
631.233	2879.76
631.424	2602.07
631.614	2273.84
631.805	2020.59
631.995	1697.17
632.185	1300.26
632.376	1042.38
632.566	807.27
632.756	618.81
632.947	481.64
633.137	376.67
633.327	472.94
633.518	390.37
633.708	459.05
633.898	525.14
634.088	664.36
634.279	1686.07
634.469	4411.68
634.659	7782.45
634.849	10632.1
635.039	13226.83
635.229	14842.61
635.42	14853.16
635.61	13196.65
635.8	11584.2
635.99	10446.23
636.18	9959.91
636.37	10951.63
636.56	12656.82
636.75	13734.07
636.94	14673.77
637.13	14759.67
637.32	14036.75
637.51	11878.55
637.7	10077.09
637.89	8502.78
638.079	7544.01
638.269	6533.96
638.459	5675.35
638.649	4815.99
638.839	4012.18
639.029	3133.57
639.218	2246.26
639.408	1491.31
639.598	1008.51
639.788	775.62
639.977	523.1
640.167	414.62
640.357	373.34
640.546	285.03
640.736	320.21
640.926	355.75
641.115	349.27
641.305	302.43
641.495	314.28
641.684	326.13
641.874	313.73
642.063	281.7
642.253	334.46
642.442	350.2
642.632	332.05
642.821	259.67
643.011	326.32
643.2	366.3
643.39	435.73
643.579	494.22
643.768	516.44
643.958	526.25
644.147	504.78
644.336	447.76
644.526	530.51
644.715	409.25
644.904	468.12
645.094	492
645.283	392.78
645.472	457.38
645.661	421.47
645.851	335.39
646.04	399.81
646.229	359.64
646.418	523.85
646.607	926.68
646.796	2105.75
646.986	3590.09
647.175	4879.49
647.364	5933.97
647.553	6778.14
647.742	6823.69
647.931	6203.14
648.12	5451.9
648.309	4863.2
648.498	4303.75
648.687	3976.82
648.876	3384.23
649.065	3045.45
649.254	2882.91
649.443	2985.65
649.632	3491.6
649.82	3891.29
650.009	4263.58
650.198	4537.01
650.387	4550.89
650.576	4107.33
650.765	3697.46
650.953	3226.13
651.142	2801.64
651.331	2617.81
651.52	2246.26
651.708	2014.48
651.897	1690.32
652.086	1232.69
652.274	909.83
652.463	713.23
652.652	562.17
652.84	418.51
653.029	359.08
653.217	317.61
653.406	315.02
653.594	250.6
653.783	297.07
653.972	270.96
654.16	279.85
654.349	255.41
654.537	277.26
654.725	340.76
654.914	265.04
655.102	263
655.291	281.7
655.479	340.39
655.667	499.04
655.856	1032.76
656.044	2187.2
656.232	3623.23
656.421	4896.89
656.609	6032.64
656.797	6776.85
656.986	6936.8
657.174	6392.34
657.362	5724.04
657.55	5146.44
657.738	4589.4
657.927	4053.83
658.115	3565.65
658.303	2999.91
658.491	2559.86
658.679	1945.8
658.867	1446.88
659.055	956.85
659.243	753.03
659.431	529.03
659.619	420.91
659.807	429.43
659.995	403.51
660.183	332.61
660.371	276.33
660.559	358.34
660.747	257.45
660.935	252.45
661.123	182.47
661.311	210.24
661.499	183.21
661.687	183.58
661.875	268.74
662.062	277.44
662.25	269.11
662.438	271.15
662.626	298.92
662.813	318.17
663.001	317.98
663.189	344.64
663.377	442.02
663.564	630.66
663.752	1200.67
663.94	2307.16
664.127	3958.12
664.315	5424.5
664.502	6720.38
664.69	7847.62
664.878	8175.29
665.065	7620.84
665.253	6894.96
665.44	6200.92
665.628	5448.01
665.815	4863.39
666.003	4250.25
666.19	3642.48
666.378	3011.38
666.565	2337.34
666.752	1843.98
666.94	1323.22
667.127	992.95
667.315	821.16
667.502	762.29
667.689	1088.48
667.877	2066.5
668.064	3251.49
668.251	4284.31
668.438	5111.08
668.626	5761.8
668.813	5809.01
669	5418.21
669.187	4890.78
669.374	4473.51
669.562	4006.44
669.749	3705.79
669.936	3192.81
670.123	2671.68
670.31	2271.81
670.497	1720.31
670.684	1289.53
670.871	925.2
671.058	734.89
671.245	563.65
671.432	455.72
671.619	337.79
671.806	348.9
671.993	377.23
672.18	214.13
672.367	187.66
672.554	183.4
672.741	190.8
672.928	224.13
673.115	211.35
673.302	208.76
673.488	221.53
673.675	234.12
673.862	190.99
674.049	244.49
674.235	248.19
674.422	225.24
674.609	269.3
674.796	253.01
674.982	218.94
675.169	222.09
675.356	260.97
675.542	267.82
675.729	240.97
675.916	225.98
676.102	277.81
676.289	238.94
676.475	147.67
676.662	145.45
676.848	173.4
677.035	151.37
677.221	110.27
677.408	128.42
677.594	177.84
677.781	164.7
677.967	142.67
678.154	100.46
678.34	138.23
678.526	113.98
678.713	195.25
678.899	216.72
679.085	361.12
679.272	361.3
679.458	462.01
679.644	522.55
679.831	418.88
680.017	524.96
680.203	489.6
680.389	437.21
680.576	437.58
680.762	330.2
680.948	405.18
681.134	354.08
681.32	355.94
681.506	372.78
681.692	333.54
681.879	335.2
682.065	332.05
682.251	338.9
682.437	252.45
682.623	279.85
682.809	200.06
682.995	213.39
683.181	344.27
683.367	411.29
683.553	289.48
683.739	382.22
683.924	448.31
684.11	467.38
684.296	642.51
684.482	778.95
684.668	778.76
684.854	829.67
685.04	972.59
685.225	905.95
685.411	894.84
685.597	755.99
685.783	711.93
685.968	564.76
686.154	549.95
686.34	407.22
686.526	372.78
686.711	274.11
686.897	393.7
687.083	211.35
687.268	251.15
687.454	178.4
687.639	190.25
687.825	146.93
688.01	235.97
688.196	199.5
688.382	227.09
688.567	292.99
688.752	456.64
688.938	779.32
689.123	1797.33
689.309	2627.99
689.494	3436.06
689.68	4187.68
689.865	4735.65
690.05	4685.11
690.236	4305.97
690.421	3801.13
690.606	3329.99
690.792	2926.6
690.977	2484.33
691.162	2109.08
691.348	1732.53
691.533	1340.99
691.718	1014.24
691.903	793.76
692.089	612.34
692.274	432.95
692.459	302.06
692.644	269.67
692.829	316.5
693.014	160.26
693.199	184.51
693.384	121.38
693.569	216.54
693.755	187.47
693.94	204.69
694.125	285.03
694.31	193.95
694.495	246.34
694.68	193.77
694.864	269.48
695.049	188.77
695.234	199.13
695.419	304.47
695.604	204.13
695.789	188.95
695.974	222.09
696.159	164.89
696.344	175.99
696.528	202.28
696.713	161
696.898	213.94
697.083	225.61
697.267	169.7
697.452	218.2
697.637	260.04
697.822	252.27
698.006	353.71
698.191	455.16
698.375	516.07
698.56	678.24
698.745	907.43
698.929	1310.82
699.114	3069.33
699.298	8199.91
699.483	16161.44
699.668	22727.5
699.852	29741.18
700.037	34849.18
700.221	37138.45
700.405	35506.93
700.59	32148.56
700.774	27879.55
700.959	23806.41
701.143	20258.84
701.328	16918.24
701.512	13522.29
701.696	10644.5
701.881	8461.13
702.065	6740.56
702.249	5206.24
702.433	3934.24
702.618	2806.08
702.802	1993.01
702.986	1363.95
703.17	1314.52
703.355	656.58
703.539	444.24
703.723	418.51
703.907	307.06
704.091	368.52
704.275	218.76
704.46	142.49
704.644	242.27
704.828	177.29
705.012	106.94
705.196	177.29
705.38	120.46
705.564	230.42
705.748	148.22
705.932	211.35
706.116	102.5
706.3	105.28
706.484	118.79
706.668	144.71
706.851	139.15
707.035	174.51
707.219	194.32
707.403	120.64
707.587	97.13
707.771	208.58
707.954	192.65
708.138	320.21
708.322	355.38
708.506	405.36
708.689	500.33
708.873	448.5
709.057	542.91
709.241	571.24
709.424	453.5
709.608	413.88
709.792	295.4
709.975	310.21
710.159	226.53
710.342	208.21
710.526	276.33
710.709	230.42
710.893	200.61
711.077	172.48
711.26	204.87
711.443	151.56
711.627	199.69
711.81	177.66
711.994	110.64
712.177	121.75
712.361	144.34
712.544	83.99
712.727	140.63
712.911	146.19
713.094	125.45
713.277	172.11
713.461	236.53
713.644	272.81
713.827	387.78
714.011	348.16
714.194	423.69
714.377	479.41
714.56	477.19
714.743	439.06
714.927	390.18
715.11	311.32
715.293	268.93
715.476	246.9
715.659	228.01
715.842	185.8
716.025	143.6
716.208	161.37
716.391	221.16
716.575	175.62
716.758	177.1
716.941	144.15
717.124	127.49
717.306	126.75
717.489	71.95
717.672	104.53
717.855	112.87
718.038	98.06
718.221	182.47
718.404	66.21
718.587	91.76
718.77	111.01
718.952	148.22
719.135	162.29
719.318	155.81
719.501	155.26
719.684	219.31
719.866	241.71
720.049	275.96
720.232	441.83
720.414	1217.7
720.597	2960.1
720.78	5266.03
720.962	7334.82
721.145	9341.59
721.328	10788.9
721.51	11443.14
721.693	10447.16
721.875	9028.17
722.058	7593.81
722.24	6309.78
722.423	5211.42
722.605	4238.03
722.788	3482.34
722.97	3019.71
723.153	2485.07
723.335	2205.72
723.518	1930.99
723.7	1692.18
723.882	1274.16
724.065	1003.51
724.247	743.22
724.429	588.82
724.612	551.98
724.794	413.51
724.976	470.16
725.159	508.66
725.341	482.01
725.523	447.02
725.705	401.48
725.888	472.75
726.07	303.92
726.252	227.27
726.434	238.75
726.616	230.61
726.798	88.43
726.98	182.84
727.162	156.93
727.345	241.16
727.527	161.74
727.709	162.11
727.891	258.93
728.073	285.96
728.255	317.8
728.437	461.83
728.619	407.96
728.801	474.97
728.982	420.54
729.164	434.06
729.346	387.04
729.528	408.33
729.71	332.42
729.892	436.28
730.074	508.29
730.255	587.9
730.437	554.39
730.619	579.57
730.801	657.32
730.983	489.6
731.164	484.78
731.346	441.65
731.528	328.17
731.709	321.87
731.891	230.42
732.073	239.86
732.254	301.69
732.436	225.24
732.617	195.06
732.799	244.67
732.981	208.02
733.162	210.98
733.344	135.08
733.525	196.36
733.707	209.87
733.888	174.51
734.07	151.56
734.251	184.14
734.433	166.74
734.614	207.65
734.795	289.11
734.977	365.19
735.158	339.64
735.34	505.7
735.521	487.75
735.702	479.23
735.883	530.51
736.065	493.48
736.246	536.43
736.427	507.74
736.609	477.38
736.79	355.2
736.971	323.17
737.152	320.76
737.333	286.33
737.514	255.04
737.696	291.51
737.877	186.92
738.058	175.99
738.239	169.51
738.42	192.28
738.601	153.59
738.782	161.74
738.963	205.98
739.144	128.79
739.325	209.32
739.506	171.18
739.687	233.01
739.868	602.15
740.049	1055.16
740.23	1470.58
740.411	1900.44
740.592	2172.21
740.773	2284.02
740.953	2199.24
741.134	1857.68
741.315	1494.83
741.496	1293.04
741.677	1042.75
741.857	888.91
742.038	680.09
742.219	692.68
742.4	620.48
742.58	543.47
742.761	552.54
742.942	537.73
743.122	440.35
743.303	392.41
743.484	336.31
743.664	334.65
743.845	330.39
744.025	325.02
744.206	277.63
744.386	252.45
744.567	186.36
744.748	235.6
744.928	375.19
745.108	372.04
745.289	364.64
745.469	442.02
745.65	582.16
745.83	488.67
746.011	493.85
746.191	518.29
746.371	402.96
746.552	448.5
746.732	398.7
746.912	437.21
747.093	355.01
747.273	310.95
747.453	261.89
747.633	320.58
747.814	196.91
747.994	244.3
748.174	237.46
748.354	191.73
748.534	196.17
748.715	181.73
748.895	200.61
749.075	81.76
749.255	197.28
749.435	133.97
749.615	218.02
749.795	262.26
749.975	297.81
750.155	350.2
750.335	376.11
750.515	404.99
750.695	401.85
750.875	360.56
751.055	350.2
751.235	310.02
751.415	297.99
751.595	216.72
751.775	290.4
751.954	212.83
752.134	261.34
752.314	284.85
752.494	248.56
752.674	193.58
752.854	234.49
753.033	157.85
753.213	160.44
753.393	117.12
753.572	168.22
753.752	113.98
753.932	151.37
754.111	160.44
754.291	173.96
754.471	193.95
754.65	228.38
754.83	266.33
755.01	340.01
755.189	318.17
755.369	335.94
755.548	369.82
755.728	328.17
755.907	310.02
756.087	242.82
756.266	303.73
756.446	200.61
756.625	243.38
756.804	398.88
756.984	247.08
757.163	218.76
757.343	243.01
757.522	141.56
757.701	214.31
757.881	263.93
758.06	143.41
758.239	162.66
758.418	234.49
758.598	217.28
758.777	223.57
758.956	185.06
759.135	162.85
759.315	163.4
759.494	282.07
759.673	185.62
759.852	141.93
760.031	264.85
760.21	475.9
760.389	691.2
760.568	972.96
760.748	1143.83
760.927	1231.77
761.106	1275.46
761.285	1136.8
761.464	877.62
761.643	832.08
761.822	688.24
762	628.07
762.179	487.93
762.358	460.53
762.537	446.09
762.716	413.14
762.895	385.37
763.074	402.96
763.253	422.03
763.431	298.92
763.61	303.55
763.789	274.11
763.968	185.43
764.147	206.72
764.325	204.32
764.504	141
764.683	84.17
764.861	161.55
765.04	110.46
765.219	96.02
765.397	92.5
765.576	165.07
765.755	166.92
765.933	90.84
766.112	147.67
766.29	126.75
766.469	77.69
766.647	127.12
766.826	107.87
767.004	129.53
767.183	161.18
767.361	164.33
767.54	215.05
767.718	221.72
767.897	94.72
768.075	120.64
768.253	104.72
768.432	151.93
768.61	117.12
768.788	102.13
768.967	135.08
769.145	119.34
769.323	164.7
769.501	137.67
769.68	117.68
769.858	172.85
770.036	103.79
770.214	237.27
770.393	131.75
770.571	169.14
770.749	114.16
770.927	115.27
771.105	204.5
771.283	133.6
771.461	143.78
771.639	211.35
771.817	108.61
771.995	110.83
772.173	173.4
772.351	131.01
772.529	143.23
772.707	196.36
772.885	77.69
773.063	222.64
773.241	210.8
773.419	130.45
773.597	153.96
773.775	99.72
773.953	105.46
774.131	138.23
774.308	175.99
774.486	175.44
774.664	151
774.842	113.24
775.02	173.59
775.197	180.25
775.375	118.23
775.553	73.99
775.73	81.02
775.908	115.64
776.086	116.94
776.263	131.01
776.441	169.14
776.619	69.36
776.796	130.08
776.974	169.14
777.151	118.23
777.329	125.45
777.506	197.28
777.684	78.99
777.861	133.6
778.039	133.6
778.216	146.74
778.394	168.22
778.571	125.82
778.749	60.29
778.926	67.88
779.103	85.65
779.281	66.58
779.458	151.19
779.635	105.65
779.813	120.09
779.99	66.4
780.167	73.8
780.345	144.71
780.522	160.63
780.699	71.03
780.876	53.07
781.054	93.06
781.231	69.92
781.408	90.84
781.585	80.47
781.762	43.44
781.939	77.14
782.116	69.73
782.294	107.31
782.471	-5.43
782.648	45.11
782.825	56.4
783.002	73.99
783.179	76.4
783.356	35.67
783.533	61.22
783.71	76.95
783.887	121.94
784.064	161.55
784.24	120.64
784.417	213.94
784.594	470.9
784.771	850.04
784.948	1191.78
785.125	1293.41
785.302	1486.69
785.478	1756.6
785.655	1489.46
785.832	1236.77
786.009	1117.17
786.185	1018.13
786.362	960.56
786.539	780.43
786.715	868.92
786.892	728.59
787.069	745.26
787.245	665.1
787.422	545.69
787.599	577.9
787.775	519.22
787.952	449.98
788.128	484.41
788.305	444.24
788.481	368.34
788.658	317.06
788.834	306.32
789.011	179.14
789.187	219.87
789.364	93.98
789.54	186.55
789.717	128.6
789.893	23.82
790.069	111.2
790.246	57.88
790.422	86.95
790.598	83.8
790.775	102.13
790.951	117.49
791.127	73.25
791.304	52.33
791.48	41.96
791.656	70.1
791.832	75.84
792.008	63.99
792.185	90.28
792.361	98.8
792.537	103.05
792.713	163.96
792.889	220.79
793.065	271.7
793.241	291.7
793.417	312.25
793.593	233.2
793.769	263.56
793.945	181.36
794.121	220.79
794.297	213.94
794.473	168.96
794.649	232.46
794.825	179.88
795.001	170.62
795.177	93.98
795.353	187.47
795.529	178.03
795.705	168.4
795.881	132.12
796.056	124.71
796.232	112.31
796.408	177.29
796.584	96.39
796.76	132.86
796.935	70.66
797.111	62.7
797.287	38.26
797.462	105.28
797.638	133.78
797.814	50.66
797.989	62.14
798.165	108.98
798.341	153.59
798.516	66.21
798.692	99.35
798.867	117.68
799.043	84.54
799.218	116.94
799.394	66.03
799.569	194.51
799.745	94.35
799.92	74.91
800.096	102.5
800.271	96.39
800.447	204.69
800.622	78.8
800.797	26.78
800.973	23.45
801.148	94.35
801.323	86.21
801.499	38.26
801.674	38.81
801.849	149.89
802.025	151.19
802.2	251.52
802.375	217.46
802.55	237.46
802.725	161.55
802.901	204.32
803.076	223.57
803.251	166.92
803.426	161.92
803.601	200.43
803.776	97.5
803.951	114.35
804.127	166.55
804.302	128.79
804.477	157.48
804.652	182.66
804.827	90.28
805.002	74.17
805.177	159.52
805.352	235.23
805.526	150.08
805.701	216.35
805.876	148.96
806.051	72.51
806.226	125.08
806.401	129.71
806.576	107.87
806.751	99.91
806.925	100.65
807.1	90.65
807.275	54.74
807.45	69.92
807.625	248.75
807.799	115.83
807.974	69.92
808.149	22.15
808.323	75.84
808.498	85.84
808.673	106.39
808.847	39.74
809.022	67.32
809.197	91.39
809.371	56.03
809.546	114.35
809.72	49.37
809.895	63.62
810.069	-0.43
810.244	155.26
810.418	43.26
810.593	135.27
810.767	113.61
810.942	123.23
811.116	178.21
811.29	103.79
811.465	66.03
811.639	109.35
811.814	203.39
811.988	168.59
812.162	131.19
812.337	59.36
812.511	145.08
812.685	88.06
812.859	101.57
813.034	132.12
813.208	153.04
813.382	67.88
813.556	190.99
813.73	192.1
813.905	125.64
814.079	138.97
814.253	169.33
814.427	242.82
814.601	126.93
814.775	148.59
814.949	150.45
815.123	197.65
815.297	142.12
815.471	140.08
815.645	180.81
815.819	196.36
815.993	211.91
816.167	217.83
816.341	248.38
816.515	339.83
816.689	366.67
816.863	528.84
817.037	649.73
817.21	741.37
817.384	762.1
817.558	839.3
817.732	906.13
817.906	813.38
818.079	751.18
818.253	871.14
818.427	903.35
818.601	1149.02
818.774	1714.58
818.948	2777.76
819.122	4799.89
819.295	7800.97
819.469	11455.91
819.643	14501.97
819.816	17164.64
819.99	18861.88
820.163	19610.34
820.337	18797.64
820.511	17576.73
820.684	16369.16
820.858	15522.94
821.031	14470.69
821.205	13774.61
821.378	13139.63
821.551	12461.7
821.725	11670.29
821.898	11077.7
822.072	10436.24
822.245	9829.21
822.418	9212.55
822.592	8718.82
822.765	8151.78
822.938	7771.53
823.112	7307.23
823.285	7069.9
823.458	6493.61
823.631	6031.53
823.805	5615.18
823.978	5393.59
824.151	5575.94
824.324	6412.15
824.497	7056.76
824.671	7819.66
824.844	8187.14
825.017	8505
825.19	8227.87
825.363	7808.74
825.536	7278.35
825.709	6850.16
825.882	6524.89
826.055	6246.83
826.228	5635.92
826.401	5614.81
826.574	5200.5
826.747	5037.77
826.92	4776.19
827.093	4586.44
827.266	4275.24
827.439	3992.37
827.612	3761.51
827.785	3500.49
827.957	3318.14
828.13	3179.66
828.303	2966.95
828.476	2665.94
828.649	2289.02
828.821	2000.04
828.994	1509.83
829.167	1133.09
829.34	911.31
829.512	669.91
829.685	506.07
829.858	387.04
830.03	354.64
830.203	335.94
830.375	341.5
830.548	282.07
830.721	317.8
830.893	373.15
831.066	543.1
831.238	692.12
831.411	883.92
831.583	866.33
831.756	943.9
831.928	887.8
832.101	900.58
832.273	872.62
832.446	797.46
832.618	811.53
832.79	773.77
832.963	686.94
833.135	668.61
833.307	661.95
833.48	665.28
833.652	625.11
833.824	654.54
833.997	616.41
834.169	620.67
834.341	585.86
834.513	534.4
834.686	551.61
834.858	567.72
835.03	566.24
835.202	483.86
835.374	407.4
835.546	439.61
835.718	363.16
835.891	331.31
836.063	282.81
836.235	250.04
836.407	206.54
836.579	250.04
836.751	167.29
836.923	274.85
837.095	338.53
837.267	373.15
837.439	502.37
837.611	553.65
837.782	685.09
837.954	768.03
838.126	786.35
838.298	837.82
838.47	823.38
838.642	706.19
838.814	740.63
838.985	634.74
839.157	613.63
839.329	571.42
839.501	642.14
839.672	480.9
839.844	603.08
840.016	485.71
840.188	527.36
840.359	482.01
840.531	422.4
840.702	395
840.874	502.93
841.046	362.23
841.217	355.38
841.389	362.6
841.56	331.31
841.732	230.24
841.903	273.55
842.075	171.37
842.246	172.48
842.418	212.09
842.589	136.56
842.761	139.89
842.932	82.32
843.104	150.82
843.275	71.21
843.446	51.77
843.618	48.81
843.789	104.72
843.96	-0.8
844.132	76.77
844.303	80.84
844.474	62.88
844.646	88.8
844.817	5.12
844.988	62.7
845.159	140.08
845.331	114.35
845.502	28.63
845.673	86.21
845.844	-23.94
846.015	132.67
846.186	89.72
846.357	120.09
846.528	103.42
846.7	71.77
846.871	115.09
847.042	128.79
847.213	119.9
847.384	296.51
847.555	159.52
847.726	65.29
847.897	153.59
848.067	46.59
848.238	150.45
848.409	85.84
848.58	149.89
848.751	139.52
848.922	113.98
849.093	150.45
849.264	126.38
849.434	189.51
849.605	86.21
849.776	85.28
849.947	92.13
850.117	132.67
850.288	149.34
850.459	89.91
850.63	161
850.8	154.33
850.971	180.44
851.142	61.59
851.312	-7.28
851.483	33.63
851.653	96.76
851.824	108.98
851.995	54.92
852.165	145.63
852.336	85.65
852.506	152.11
852.677	109.35
852.847	105.83
853.018	86.58
853.188	66.4
853.358	121.38
853.529	126.01
853.699	87.13
853.87	105.83
854.04	4.94
854.21	68.62
854.381	63.99
854.551	111.38
854.721	65.1
854.892	86.21
855.062	-2.65
855.232	50.29
855.402	90.46
855.573	70.84
855.743	89.91
855.913	47.15
856.083	60.84
856.253	93.24
856.423	24.56
856.594	70.29
856.764	120.09
856.934	109.72
857.104	45.66
857.274	108.42
857.444	33.82
857.614	76.4
857.784	83.06
857.954	51.96
858.124	9.38
858.294	22.52
858.464	113.98
858.634	33.08
858.804	69.73
858.974	39.37
859.143	-3.02
859.313	-6.36
859.483	80.1
859.653	16.78
859.823	56.4
859.993	54.18
860.162	94.91
860.332	119.16
860.502	55.11
860.672	114.16
860.841	109.16
861.011	63.25
861.181	26.04
861.35	174.14
861.52	80.28
861.69	105.28
861.859	86.76
862.029	82.13
862.198	82.87
862.368	103.79
862.538	95.46
862.707	115.83
862.877	128.42
863.046	149.52
863.216	55.29
863.385	118.05
863.555	116.2
863.724	171.92
863.893	70.47
864.063	190.99
864.232	175.07
864.402	70.1
864.571	60.47
864.74	94.17
864.91	32.71
865.079	128.79
865.248	85.28
865.418	111.57
865.587	102.68
865.756	114.53
865.925	108.05
866.094	197.47
866.264	120.09
866.433	91.21
866.602	136.93
866.771	68.99
866.94	86.95
867.109	56.03
867.278	97.13
867.448	64.55
867.617	56.22
867.786	124.53
867.955	69.18
868.124	80.1
868.293	93.61
868.462	60.66
868.631	135.64
868.8	175.07
868.969	66.03
869.137	102.68
869.306	95.09
869.475	109.72
869.644	30.3
869.813	46.78
869.982	114.9
870.151	80.65
870.319	76.95
870.488	57.51
870.657	96.57
870.826	55.48
870.995	44.55
871.163	73.25
871.332	105.46
871.501	140.08
871.669	71.03
871.838	181.36
872.007	182.1
872.175	137.12
872.344	80.84
872.512	44.18
872.681	113.61
872.85	140.82
873.018	108.24
873.187	84.91
873.355	190.25
873.524	92.13
873.692	159.33
873.861	143.41
874.029	127.31
874.197	164.89
874.366	156.74
874.534	122.31
874.703	73.06
874.871	134.15
875.039	91.95
875.208	80.84
875.376	144.15
875.544	183.77
875.713	117.31
875.881	111.01
876.049	118.79
876.217	151
876.386	95.09
876.554	109.35
876.722	151.56
876.89	198.39
877.058	101.76
877.226	118.05
877.395	81.95
877.563	107.68
877.731	115.27
877.899	118.97
878.067	101.2
878.235	118.79
878.403	117.49
878.571	175.62
878.739	179.7
878.907	295.95
879.075	356.68
879.243	402.22
879.411	564.94
879.579	869.29
879.747	1278.05
879.914	1741.42
880.082	2322.72
880.25	3053.41
880.418	3675.8
880.586	4151.76
880.754	4590.69
880.921	4762.86
881.089	4656.6
881.257	4673.08
881.425	4547.38
881.592	4466.85
881.76	4207.48
881.928	4213.41
882.095	4058.09
882.263	3975.52
882.431	3787.99
882.598	3719.68
882.766	3458.28
882.933	3362.38
883.101	3214.47
883.269	3156.71
883.436	2923.45
883.604	2644.28
883.771	2356.59
883.939	1863.23
884.106	1429.48
884.273	1141.98
884.441	832.08
884.608	629.92
884.776	546.06
884.943	496.08
885.11	337.79
885.278	297.25
885.445	319.84
885.613	293.73
885.78	234.49
885.947	224.31
886.114	260.78
886.282	281.89
886.449	223.39
886.616	249.86
886.783	152.85
886.951	189.88
887.118	149.89
887.285	245.23
887.452	128.23
887.619	155.44
887.786	77.88
887.953	152.48
888.12	130.82
888.287	159.15
888.455	172.85
888.622	110.27
888.789	91.21
888.956	110.83
889.123	84.17
889.29	91.95
889.456	95.09
889.623	111.94
889.79	128.6
889.957	174.51
890.124	141.37
890.291	144.34
890.458	145.08
890.625	204.32
890.791	158.22
890.958	138.78
891.125	177.66
891.292	140.45
891.459	141.93
891.625	155.81
891.792	195.8
891.959	133.23
892.125	123.79
892.292	169.14
892.459	193.21
892.625	270.22
892.792	260.97
892.959	167.48
893.125	323.17
893.292	205.61
893.458	295.95
893.625	355.38
893.791	377.6
893.958	446.09
894.124	628.26
894.291	708.42
894.457	868.92
894.624	1001.66
894.79	1096.44
894.957	1160.49
895.123	1162.9
895.289	1197.89
895.456	1168.08
895.622	1055.9
895.788	1011.47
895.955	979.44
896.121	979.07
896.287	1045.16
896.454	872.07
896.62	858.92
896.786	819.49
896.952	798.57
897.119	736.55
897.285	676.57
897.451	496.82
897.617	477.56
897.783	398.88
897.949	283.92
898.115	244.49
898.281	205.8
898.448	268.93
898.614	148.78
898.78	150.63
898.946	134.9
899.112	185.06
899.278	63.44
899.444	83.62
899.61	201.36
899.775	90.65
899.941	109.35
900.107	101.94
900.273	89.17
900.439	85.84
900.605	87.32
900.771	121.75
900.937	97.87
901.102	131.93
901.268	118.42
901.434	60.47
901.6	86.76
901.766	96.2
901.931	128.05
902.097	92.87
902.263	113.98
902.428	108.61
902.594	39.37
902.76	84.54
902.925	80.65
903.091	148.78
903.256	78.62
903.422	178.4
903.588	94.35
903.753	116.2
903.919	169.7
904.084	198.39
904.25	251.71
904.415	362.23
904.581	326.13
904.746	426.47
904.912	447.02
905.077	436.28
905.242	388.89
905.408	382.22
905.573	414.62
905.738	392.41
905.904	711.01
906.069	711.01
