Data from FLMT087451__3__13-41-22-386.txt Node

Date: Tue Jun 04 13:41:22 JST 2024
User: power
Spectrometer: FLMT08745
Trigger mode: 0
Integration Time (sec): 3.800000E-2
Scans to average: 11
Electric dark correction enabled: true
Nonlinearity correction enabled: false
Boxcar width: 0
XAxis mode: Wavelengths
Number of Pixels in Spectrum: 3648
>>>>>Begin Spectral Data<<<<<
194.923	-29.02
195.148	-29.02
195.372	-29.02
195.597	-42.16
195.821	-38.09
196.046	4.12
196.271	-5.88
196.495	-24.02
196.72	-8.1
196.944	-35.13
197.169	9.49
197.393	28.56
197.618	7.82
197.842	5.23
198.067	3.56
198.291	-14.58
198.516	28.93
198.74	-31.43
198.964	20.97
199.189	-1.43
199.413	10.04
199.637	19.3
199.862	11.52
200.086	-10.69
200.31	18.56
200.535	16.52
200.759	28.74
200.983	-17.36
201.207	-21.61
201.432	-4.21
201.656	30.96
201.88	1.71
202.104	-2.55
202.328	-15.69
202.552	21.34
202.777	9.3
203.001	-8.47
203.225	-21.8
203.449	-16.43
203.673	3.75
203.897	16.15
204.121	13.56
204.345	27.26
204.569	-17.73
204.793	8.38
205.017	-11.62
205.241	20.23
205.465	-17.73
205.689	-7.73
205.912	4.67
206.136	5.04
206.36	-11.99
206.584	20.41
206.808	-10.88
207.032	28.19
207.255	12.08
207.479	5.79
207.703	4.3
207.927	10.04
208.15	-18.1
208.374	13.75
208.598	-14.21
208.822	-11.43
209.045	-0.14
209.269	8.93
209.492	15.23
209.716	39.85
209.94	12.82
210.163	22.26
210.387	1.9
210.61	3.75
210.834	-10.14
211.057	-11.43
211.281	-16.24
211.504	9.3
211.728	-7.91
211.951	44.85
212.175	39.66
212.398	16.52
212.622	7.08
212.845	37.81
213.068	-11.8
213.292	-0.32
213.515	4.86
213.738	-6.06
213.962	-1.06
214.185	-8.47
214.408	4.67
214.631	31.33
214.855	11.15
215.078	-6.43
215.301	1.53
215.524	-16.62
215.747	4.86
215.971	-7.17
216.194	-4.58
216.417	15.6
216.64	-3.29
216.863	147.96
217.086	17.26
217.309	9.49
217.532	12.45
217.755	-10.14
217.978	10.41
218.201	19.48
218.424	13.56
218.647	15.23
218.87	2.08
219.093	26.89
219.316	8.75
219.539	17.45
219.762	-10.14
219.985	3.56
220.207	-27.72
220.43	11.34
220.653	-4.77
220.876	-3.66
221.099	43
221.321	22.45
221.544	1.16
221.767	35.04
221.99	7.08
222.212	49.29
222.435	-10.14
222.658	30.59
222.88	-10.32
223.103	29.85
223.326	-25.32
223.548	-4.58
223.771	-1.62
223.993	15.78
224.216	-21.43
224.438	16.34
224.661	24.3
224.883	33.18
225.106	23.19
225.328	0.23
225.551	31.52
225.773	4.67
225.996	-4.77
226.218	27.82
226.44	3.19
226.663	13.38
226.885	-5.14
227.108	34.29
227.33	10.6
227.552	30.41
227.774	-21.24
227.997	22.82
228.219	32.44
228.441	41.51
228.663	19.48
228.886	12.45
229.108	18.93
229.33	4.49
229.552	7.27
229.774	23.37
229.996	7.45
230.219	33.55
230.441	-18.47
230.663	-0.88
230.885	-18.84
231.107	21.34
231.329	16.52
231.551	28.74
231.773	-9.77
231.995	13.56
232.217	-10.32
232.439	-11.99
232.661	-0.88
232.883	4.3
233.105	4.49
233.326	0.42
233.548	26.52
233.77	-0.51
233.992	32.44
234.214	18.19
234.436	-15.69
234.657	16.89
234.879	39.48
235.101	-14.58
235.323	-2.36
235.544	13.75
235.766	19.3
235.988	32.63
236.21	6.53
236.431	44.48
236.653	26.15
236.874	37.26
237.096	-5.51
237.318	-1.99
237.539	-4.58
237.761	23.74
237.982	2.27
238.204	37.07
238.425	-3.84
238.647	13.38
238.868	9.3
239.09	20.41
239.311	-24.21
239.533	6.53
239.754	10.41
239.975	22.08
240.197	5.79
240.418	10.78
240.64	8.19
240.861	8.56
241.082	1.53
241.304	15.41
241.525	0.05
241.746	-16.43
241.967	-19.02
242.189	11.71
242.41	9.12
242.631	55.77
242.852	-15.5
243.073	46.7
243.294	-3.66
243.516	22.45
243.737	13.19
243.958	7.08
244.179	-26.61
244.4	50.4
244.621	-17.17
244.842	7.27
245.063	3.19
245.284	12.45
245.505	9.3
245.726	37.44
245.947	28.74
246.168	-0.32
246.389	-5.69
246.61	26.7
246.831	16.15
247.052	12.63
247.272	-0.14
247.493	-0.51
247.714	33.37
247.935	10.04
248.156	8.93
248.376	43.37
248.597	12.63
248.818	32.44
249.039	-3.29
249.259	30.78
249.48	1.53
249.701	19.3
249.921	13.01
250.142	-0.88
250.363	19.67
250.583	23.37
250.804	11.71
251.025	38
251.245	25.96
251.466	32.63
251.686	7.45
251.907	-18.47
252.127	10.78
252.348	20.6
252.568	-1.99
252.789	31.52
253.009	32.63
253.23	51.33
253.45	7.64
253.67	15.97
253.891	-15.32
254.111	32.44
254.331	26.7
254.552	28
254.772	18
254.992	10.78
255.213	-2.36
255.433	34.66
255.653	0.6
255.873	41.51
256.093	22.45
256.314	4.49
256.534	-2.92
256.754	41.33
256.974	-9.4
257.194	-1.8
257.414	10.04
257.634	24.3
257.855	20.41
258.075	1.34
258.295	-25.13
258.515	0.23
258.735	-12.36
258.955	26.52
259.175	8.38
259.395	33.55
259.615	13.56
259.835	30.22
260.054	0.97
260.274	17.26
260.494	-5.88
260.714	58.18
260.934	3.19
261.154	-6.25
261.374	-15.69
261.593	-5.32
261.813	-3.66
262.033	3.93
262.253	-8.1
262.472	20.97
262.692	23.93
262.912	27.44
263.132	-15.5
263.351	23.37
263.571	38.37
263.791	1.16
264.01	28
264.23	-2.73
264.449	-12.73
264.669	45.03
264.888	23.19
265.108	0.97
265.328	15.97
265.547	33
265.767	10.23
265.986	0.23
266.205	13.75
266.425	39.85
266.644	39.11
266.864	0.6
267.083	-5.14
267.303	11.89
267.522	-19.39
267.741	35.78
267.961	17.08
268.18	6.71
268.399	-5.88
268.618	20.23
268.838	20.04
269.057	1.71
269.276	-8.47
269.495	11.71
269.715	-0.51
269.934	20.6
270.153	19.67
270.372	30.78
270.591	28
270.81	30.41
271.029	19.11
271.249	15.41
271.468	11.71
271.687	45.59
271.906	18.19
272.125	14.86
272.344	26.15
272.563	15.97
272.782	18.74
273.001	1.16
273.22	16.71
273.439	34.48
273.657	9.49
273.876	18.19
274.095	4.86
274.314	25.59
274.533	35.78
274.752	14.12
274.971	31.15
275.189	37.44
275.408	14.67
275.627	30.59
275.846	31.89
276.064	12.08
276.283	-5.88
276.502	19.67
276.72	-12.17
276.939	19.3
277.158	-2.18
277.376	20.97
277.595	6.34
277.814	3.75
278.032	32.44
278.251	5.97
278.469	-5.51
278.688	34.29
278.906	28.74
279.125	-0.69
279.343	-6.99
279.562	0.97
279.78	-1.99
279.999	9.67
280.217	0.79
280.435	18.93
280.654	-29.02
280.872	32.81
281.091	20.78
281.309	28.74
281.527	30.41
281.746	-0.14
281.964	3.93
282.182	23
282.4	38.74
282.619	38.74
282.837	21.71
283.055	33.55
283.273	-7.54
283.491	6.16
283.71	13.75
283.928	-6.06
284.146	-6.62
284.364	21.71
284.582	1.16
284.8	20.23
285.018	7.45
285.236	-12.54
285.454	11.89
285.672	15.6
285.89	2.08
286.108	4.3
286.326	23.37
286.544	28.56
286.762	7.27
286.98	9.12
287.198	15.41
287.416	78.35
287.634	24.48
287.851	32.81
288.069	-14.58
288.287	14.67
288.505	16.71
288.723	12.82
288.94	25.59
289.158	29.3
289.376	29.67
289.594	21.52
289.811	-5.88
290.029	11.71
290.247	27.82
290.464	47.62
290.682	6.71
290.9	9.67
291.117	18.74
291.335	15.23
291.552	9.12
291.77	34.11
291.987	28.93
292.205	41.7
292.422	31.89
292.64	52.44
292.857	15.78
293.075	35.59
293.292	21.15
293.51	52.81
293.727	17.45
293.945	70.95
294.162	50.4
294.379	61.32
294.597	63.54
294.814	61.14
295.031	48.73
295.249	77.8
295.466	68.17
295.683	69.84
295.9	53.92
296.118	70.95
296.335	69.28
296.552	61.14
296.769	97.61
296.986	104.64
297.204	72.43
297.421	90.02
297.638	79.47
297.855	107.6
298.072	88.91
298.289	122.41
298.506	85.39
298.723	131.86
298.94	110.75
299.157	122.97
299.374	147.59
299.591	126.49
299.808	106.86
300.025	150.37
300.242	128.34
300.459	159.07
300.676	142.22
300.893	134.45
301.109	174.81
301.326	179.99
301.543	190.91
301.76	169.25
301.977	159.62
302.193	195.54
302.41	208.68
302.627	186.1
302.844	197.21
303.06	221.64
303.277	214.24
303.494	251.63
303.71	240.71
303.927	262.93
304.144	227.01
304.36	250.34
304.577	242.19
304.793	278.48
305.01	271.63
305.227	296.43
305.443	288.29
305.66	328.83
305.876	245.52
306.093	320.87
306.309	301.06
306.526	303.1
306.742	337.16
306.958	338.46
307.175	366.6
307.391	326.24
307.608	381.41
307.824	393.81
308.04	381.96
308.257	383.07
308.473	424.73
308.689	420.28
308.905	407.32
309.122	400.84
309.338	395.29
309.554	445.27
309.77	403.62
309.986	455.09
310.203	417.69
310.419	447.31
310.635	456.94
310.851	458.97
311.067	466.38
311.283	467.3
311.499	477.49
311.715	485.63
311.931	527.66
312.147	501
312.363	490.07
312.579	539.87
312.795	509.88
313.011	534.69
313.227	555.05
313.443	571.72
313.659	556.91
313.875	576.53
314.091	612.81
314.307	588.75
314.523	600.97
314.738	599.85
314.954	605.04
315.17	577.08
315.386	604.11
315.602	620.22
315.817	610.22
316.033	640.77
316.249	613.74
316.465	640.77
316.68	677.05
316.896	663.17
317.112	633.36
317.327	648.17
317.543	688.16
317.758	704.27
317.974	673.72
318.19	704.82
318.405	697.79
318.621	727.41
318.836	710.38
319.052	711.86
319.267	724.44
319.483	742.22
319.698	736.66
319.914	777.95
320.129	725.74
320.344	752.95
320.56	763.14
320.775	775.91
320.99	736.11
321.206	775.35
321.421	762.58
321.636	769.06
321.852	740.37
322.067	772.95
322.282	755.36
322.498	789.05
322.713	819.6
322.928	832.56
323.143	773.5
323.358	812.93
323.574	829.23
323.789	825.52
324.004	833.67
324.219	829.6
324.434	839.96
324.649	853.85
324.864	829.04
325.079	825.89
325.294	827
325.509	827.93
325.724	900.87
325.939	887.36
326.154	856.62
326.369	922.9
326.584	844.96
326.799	875.51
327.014	907.72
327.229	860.51
327.444	879.95
327.659	862.73
327.873	868.84
328.088	856.99
328.303	875.88
328.518	884.21
328.733	872.55
328.947	912.53
329.162	889.95
329.377	932.34
329.591	897.17
329.806	876.99
330.021	873.1
330.235	939.19
330.45	901.24
330.665	888.84
330.879	895.69
331.094	949.74
331.309	921.23
331.523	955.11
331.738	934.01
331.952	949.56
332.167	937.71
332.381	928.27
332.596	935.3
332.81	916.24
333.025	909.76
333.239	956.78
333.453	916.24
333.668	934.75
333.882	922.34
334.097	950.85
334.311	937.52
334.525	958.44
334.74	915.12
334.954	924.94
335.168	954.19
335.382	944.56
335.597	927.53
335.811	942.15
336.025	936.04
336.239	934.93
336.453	970.11
336.668	949.74
336.882	952.52
337.096	961.59
337.31	958.26
337.524	979.55
337.738	950.3
337.952	937.71
338.166	948.45
338.38	946.41
338.594	963.63
338.808	924.57
339.022	949.37
339.236	944.93
339.45	966.03
339.664	989.55
339.878	975.29
340.092	948.26
340.306	924.01
340.52	961.22
340.734	983.25
340.948	939.93
341.161	954.93
341.375	950.3
341.589	955.67
341.803	997.69
342.017	954.37
342.23	956.22
342.444	990.47
342.658	971.22
342.871	956.59
343.085	979.73
343.299	952.89
343.512	970.85
343.726	932.53
343.94	960.11
344.153	979.18
344.367	978.62
344.58	952.52
344.794	954.74
345.008	922.9
345.221	949.93
345.435	932.71
345.648	971.77
345.862	915.49
346.075	886.62
346.288	884.58
346.502	899.02
346.715	890.69
346.929	868.29
347.142	904.94
347.355	939.01
347.569	929.19
347.782	944.74
347.995	941.6
348.209	970.48
348.422	936.78
348.635	940.86
348.848	939.75
349.062	963.07
349.275	957.89
349.488	976.22
349.701	999.73
349.914	935.12
350.128	959.37
350.341	965.11
350.554	951.78
350.767	959
350.98	952.71
351.193	957.52
351.406	952.15
351.619	967.7
351.832	982.88
352.045	977.51
352.258	925.68
352.471	982.7
352.684	967.7
352.897	997.14
353.11	965.66
353.323	1016.2
353.536	982.14
353.748	1050.64
353.961	993.62
354.174	1033.05
354.387	1060.63
354.6	1032.68
354.813	1001.58
355.025	1003.43
355.238	1011.02
355.451	960.67
355.664	980.47
355.876	1000.1
356.089	976.4
356.302	992.32
356.514	956.41
356.727	936.41
356.94	934.56
357.152	949
357.365	965.66
357.577	949.56
357.79	900.68
358.002	911.05
358.215	913.46
358.427	944.56
358.64	962.15
358.852	944.56
359.065	926.23
359.277	947.15
359.49	958.07
359.702	963.07
359.915	920.12
360.127	931.97
360.339	914.75
360.552	958.63
360.764	954.19
360.976	928.08
361.189	926.6
361.401	933.64
361.613	943.26
361.825	909.94
362.038	922.16
362.25	958.63
362.462	945.67
362.674	951.59
362.886	950.85
363.099	957.52
363.311	970.29
363.523	988.43
363.735	1019.72
363.947	1009.35
364.159	1048.97
364.371	1021.57
364.583	1015.09
364.795	1051.56
365.007	1019.72
365.219	1033.61
365.431	1007.69
365.643	1052.49
365.855	983.07
366.067	955.3
366.279	992.88
366.491	965.11
366.703	938.45
366.914	949.37
367.126	936.78
367.338	962.33
367.55	898.46
367.762	921.05
367.974	916.05
368.185	912.72
368.397	890.69
368.609	931.6
368.82	923.08
369.032	890.69
369.244	888.65
369.456	901.8
369.667	877.73
369.879	917.72
370.09	852.74
370.302	913.46
370.514	867.18
370.725	875.32
370.937	861.81
371.148	870.51
371.36	839.04
371.571	849.77
371.783	854.96
371.994	865.33
372.206	846.07
372.417	916.05
372.629	839.22
372.84	835.71
373.051	820.71
373.263	862.55
373.474	847
373.685	834.04
373.897	810.34
374.108	852.74
374.319	828.49
374.531	856.44
374.742	827.56
374.953	840.89
375.164	797.94
375.375	839.59
375.587	814.97
375.798	842.18
376.009	867.36
376.22	921.97
376.431	880.69
376.642	916.24
376.853	967.7
377.065	910.31
377.276	921.6
377.487	870.69
377.698	824.97
377.909	862.92
378.12	856.07
378.331	839.22
378.542	819.6
378.753	816.08
378.964	801.46
379.174	779.06
379.385	773.69
379.596	788.31
379.807	778.87
380.018	769.8
380.229	776.28
380.44	814.97
380.65	755.55
380.861	789.24
381.072	790.72
381.283	802.2
381.493	803.86
381.704	807.75
381.915	815.71
382.126	803.31
382.336	834.22
382.547	846.44
382.757	829.41
382.968	877.54
383.179	888.47
383.389	937.71
383.6	921.42
383.81	930.86
384.021	973.44
384.231	961.96
384.442	931.23
384.652	880.51
384.863	877.91
385.073	859.4
385.284	868.29
385.494	875.14
385.705	846.44
385.915	841.44
386.125	827.19
386.336	808.12
386.546	775.72
386.756	806.83
386.967	707.97
387.177	778.87
387.387	766.1
387.598	695.94
387.808	702.78
388.018	734.26
388.228	679.09
388.439	720.56
388.649	656.13
388.859	687.23
389.069	712.23
389.279	667.06
389.489	700.75
389.699	714.82
389.909	638.55
390.12	686.12
390.33	695.19
390.54	686.86
390.75	696.86
390.96	707.6
391.17	663.17
391.38	700.75
391.59	654.28
391.799	684.27
392.009	661.13
392.219	694.64
392.429	691.68
392.639	722.96
392.849	689.83
393.059	703.34
393.269	739.25
393.478	764.43
393.688	790.16
393.898	803.49
394.108	800.16
394.317	807.38
394.527	786.65
394.737	770.91
394.947	747.03
395.156	728.33
395.366	765.17
395.576	770.54
395.785	775.91
395.995	809.79
396.204	779.24
396.414	771.84
396.624	785.91
396.833	792.2
397.043	752.95
397.252	756.29
397.462	789.61
397.671	739.07
397.881	674.83
398.09	698.71
398.299	654.65
398.509	663.17
398.718	651.32
398.928	672.05
399.137	696.49
399.346	681.13
399.556	686.68
399.765	659.1
399.974	643.91
400.184	679.83
400.393	686.86
400.602	659.84
400.811	639.1
401.021	635.21
401.23	653.17
401.439	658.91
401.648	635.21
401.857	665.57
402.066	636.32
402.276	652.8
402.485	674.09
402.694	719.08
402.903	722.96
403.112	815.71
403.321	885.87
403.53	940.67
403.739	911.05
403.948	952.71
404.157	969
404.366	906.98
404.575	874.58
404.784	844.59
404.993	833.67
405.202	817.75
405.411	775.91
405.619	721.67
405.828	696.31
406.037	725.37
406.246	714.08
406.455	780.91
406.663	911.79
406.872	918.27
407.081	980.66
407.29	989.36
407.498	970.48
407.707	881.25
407.916	842.37
408.124	789.61
408.333	757.95
408.542	663.17
408.75	620.96
408.959	607.44
409.168	550.8
409.376	559.68
409.585	559.68
409.793	608
410.002	556.54
410.21	592.82
410.419	590.04
410.627	565.79
410.836	557.28
411.044	562.83
411.253	565.42
411.461	550.61
411.669	574.68
411.878	612.44
412.086	551.54
412.294	580.23
412.503	548.57
412.711	608
412.919	609.3
413.128	637.44
413.336	590.97
413.544	680.57
413.752	648.73
413.961	710.56
414.169	696.68
414.377	800.9
414.585	877.54
414.793	846.81
415.001	855.33
415.209	784.06
415.418	754.44
415.626	730.55
415.834	677.05
416.042	642.25
416.25	631.88
416.458	642.25
416.666	624.29
416.874	694.45
417.082	725.74
417.29	727.96
417.498	753.51
417.706	764.06
417.913	799.24
418.121	782.02
418.329	770.17
418.537	714.82
418.745	688.35
418.953	654.47
419.161	637.07
419.368	613.55
419.576	569.31
419.784	574.31
419.992	555.79
420.199	597.45
420.407	550.8
420.615	502.66
420.822	512.48
421.03	489.33
421.238	517.29
421.445	504.14
421.653	468.42
421.861	503.4
422.068	458.42
422.276	485.08
422.483	440.28
422.691	493.04
422.898	488.04
423.106	456.01
423.313	449.35
423.521	469.16
423.728	460.45
423.936	450.83
424.143	486
424.35	473.23
424.558	452.31
424.765	430.83
424.973	465.82
425.18	455.09
425.387	496.18
425.594	451.57
425.802	507.66
426.009	462.49
426.216	476.56
426.424	511.36
426.631	488.04
426.838	482.67
427.045	478.78
427.252	493.22
427.459	527.84
427.667	513.22
427.874	483.04
428.081	499.33
428.288	466.38
428.495	473.04
428.702	518.4
428.909	459.9
429.116	439.72
429.323	469.34
429.53	473.04
429.737	472.49
429.944	492.11
430.151	595.78
430.358	917.35
430.565	1309.44
430.772	1594.72
430.979	1818.17
431.185	1925.17
431.392	1800.58
431.599	1533.82
431.806	1369.42
432.013	1217.62
432.219	1048.04
432.426	910.87
432.633	765.54
432.84	639.47
433.046	558.94
433.253	512.85
433.46	507.29
433.666	442.68
433.873	453.61
434.08	453.61
434.286	487.67
434.493	478.04
434.7	449.9
434.906	469.53
435.113	456.94
435.319	495.26
435.526	476.01
435.732	488.96
435.939	495.63
436.145	473.04
436.352	520.44
436.558	476.19
436.765	524.51
436.971	451.38
437.177	503.03
437.384	462.49
437.59	501.37
437.796	528.4
438.003	567.83
438.209	626.7
438.415	649.65
438.622	677.05
438.828	695.01
439.034	645.95
439.24	638.18
439.447	637.81
439.653	614.85
439.859	580.23
440.065	537.65
440.271	516.55
440.477	509.33
440.683	505.26
440.89	492.67
441.096	582.82
441.302	572.27
441.508	593.93
441.714	605.41
441.92	617.63
442.126	630.4
442.332	670.57
442.538	688.35
442.744	649.84
442.95	707.23
443.156	670.02
443.361	661.69
443.567	615.96
443.773	623
443.979	591.34
444.185	562.27
444.391	566.9
444.596	538.39
444.802	535.43
445.008	574.68
445.214	529.14
445.42	605.41
445.625	582.08
445.831	637.44
446.037	656.13
446.242	674.46
446.448	665.76
446.654	676.13
446.859	655.58
447.065	654.84
447.27	621.33
447.476	594.12
447.682	548.76
447.887	590.04
448.093	556.54
448.298	540.06
448.504	537.84
448.709	513.4
448.915	530.62
449.12	509.33
449.325	522.1
449.531	518.58
449.736	529.32
449.942	534.51
450.147	551.91
450.352	572.46
450.558	547.09
450.763	545.43
450.968	561.35
451.174	535.25
451.379	487.11
451.584	526.17
451.789	501.18
451.995	545.24
452.2	567.27
452.405	544.69
452.61	528.4
452.815	597.63
453.02	534.88
453.226	578.01
453.431	596.15
453.636	611.52
453.841	633.18
454.046	682.79
454.251	722.22
454.456	759.06
454.661	794.42
454.866	830.15
455.071	808.12
455.276	803.12
455.481	727.04
455.686	677.79
455.891	599.85
456.095	572.64
456.3	524.51
456.505	493.78
456.71	458.6
456.915	429.54
457.12	418.06
457.324	418.62
457.529	392.51
457.734	389
457.939	364.93
458.144	425.65
458.348	409.73
458.553	470.82
458.758	440.46
458.962	463.42
459.167	514.33
459.372	576.53
459.576	730.92
459.781	890.13
459.985	973.81
460.19	1035.83
460.394	1087.66
460.599	1055.82
460.803	926.23
461.008	859.03
461.212	732.22
461.417	730.92
461.621	660.58
461.826	646.69
462.03	573.38
462.235	536.54
462.439	529.69
462.643	562.83
462.848	547.83
463.052	510.81
463.256	540.06
463.461	539.69
463.665	532.1
463.869	570.98
464.074	525.43
464.278	565.61
464.482	571.16
464.686	573.94
464.89	595.78
465.095	662.06
465.299	635.58
465.503	627.25
465.707	614.11
465.911	575.05
466.115	568.2
466.319	561.9
466.523	536.17
466.727	490.82
466.931	481.19
467.135	431.02
467.339	439.91
467.543	466.75
467.747	443.61
467.951	442.68
468.155	458.79
468.359	530.62
468.563	537.65
468.767	550.61
468.971	581.34
469.175	574.49
469.379	573.94
469.582	593.19
469.786	537.28
469.99	503.03
470.194	503.59
470.397	495.81
470.601	459.16
470.805	505.26
471.009	477.12
471.212	443.05
471.416	474.52
471.62	443.79
471.823	452.12
472.027	457.86
472.23	401.58
472.434	475.82
472.638	435.83
472.841	444.9
473.045	462.49
473.248	455.27
473.452	464.16
473.655	493.59
473.859	466.75
474.062	456.75
474.266	460.64
474.469	462.86
474.672	496.37
474.876	537.84
475.079	493.22
475.283	542.47
475.486	513.22
475.689	555.05
475.893	554.5
476.096	599.67
476.299	577.27
476.502	611.15
476.706	591.15
476.909	608.56
477.112	608
477.315	559.68
477.519	574.49
477.722	582.82
477.925	533.76
478.128	538.58
478.331	537.84
478.534	515.99
478.737	521.92
478.94	530.99
479.143	500.81
479.346	513.96
479.549	525.99
479.752	546.91
479.955	524.69
480.158	578.2
480.361	546.91
480.564	603.93
480.767	560.05
480.97	617.44
481.173	621.14
481.376	684.64
481.579	706.49
481.782	717.41
481.984	797.38
482.187	1266.86
482.39	3441.35
482.593	7100.19
482.796	9729.16
482.998	11923.46
483.201	13669.2
483.404	13517.58
483.606	11188.14
483.809	9381.12
484.012	8224.09
484.214	7159.61
484.417	6131.98
484.62	5021.59
484.822	3932.68
485.025	3058.88
485.227	2331.71
485.43	1713.2
485.632	1247.43
485.835	1005.28
486.037	816.45
486.24	722.22
486.442	709.45
486.645	622.81
486.847	594.86
487.05	620.4
487.252	595.04
487.455	575.97
487.657	610.78
487.859	591.52
488.062	592.63
488.264	576.16
488.466	548.57
488.668	560.98
488.871	579.12
489.073	618
489.275	754.62
489.477	883.65
489.68	998.43
489.882	1211.14
490.084	1337.4
490.286	1404.04
490.488	1399.04
490.69	1400.34
490.893	1296.48
491.095	1140.61
491.297	1058.78
491.499	976.77
491.701	870.69
491.903	797.01
492.105	757.77
492.307	696.86
492.509	710.75
492.711	622.81
492.913	640.77
493.115	626.14
493.317	573.01
493.518	619.11
493.72	651.5
493.922	689.46
494.124	717.59
494.326	768.13
494.528	715.74
494.73	731.29
494.931	730.18
495.133	661.5
495.335	625.03
495.537	608.93
495.738	586.16
495.94	574.31
496.142	523.03
496.343	534.14
496.545	517.66
496.747	545.43
496.948	545.24
497.15	577.27
497.351	540.98
497.553	620.59
497.755	710.56
497.956	813.49
498.158	833.48
498.359	890.87
498.561	847.74
498.762	857.37
498.964	768.87
499.165	731.11
499.366	669.09
499.568	662.06
499.769	660.39
499.971	606.52
500.172	565.79
500.373	557.83
500.575	521.92
500.776	530.62
500.977	517.47
501.178	543.21
501.38	518.95
501.581	554.87
501.782	515.62
501.983	559.87
502.185	514.14
502.386	538.58
502.587	525.99
502.788	543.02
502.989	560.61
503.19	593.56
503.391	578.75
503.593	585.6
503.794	576.9
503.995	604.67
504.196	622.63
504.397	591.89
504.598	608.56
504.799	626.33
505	693.9
505.201	642.99
505.402	623.37
505.602	621.33
505.803	568.01
506.004	549.69
506.205	538.39
506.406	536.54
506.607	498.96
506.808	493.04
507.008	468.42
507.209	493.78
507.41	503.59
507.611	472.86
507.812	478.04
508.012	495.07
508.213	490.07
508.414	489.33
508.614	473.78
508.815	495.07
509.016	472.86
509.216	483.78
509.417	445.83
509.617	424.54
509.818	422.69
510.019	431.95
510.219	406.95
510.42	399.73
510.62	401.58
510.821	419.36
511.021	407.51
511.222	410.66
511.422	433.06
511.623	434.17
511.823	454.35
512.023	416.77
512.224	449.9
512.424	439.35
512.624	453.98
512.825	418.8
513.025	451.38
513.225	402.51
513.426	417.32
513.626	427.13
513.826	447.87
514.026	474.71
514.227	471.93
514.427	485.82
514.627	441.39
514.827	459.34
515.027	481.19
515.228	450.64
515.428	464.9
515.628	421.02
515.828	418.99
516.028	448.24
516.228	481.93
516.428	508.59
516.628	467.67
516.828	487.67
517.028	508.03
517.228	510.07
517.428	460.64
517.628	438.61
517.828	455.27
518.028	448.05
518.228	395.85
518.428	424.91
518.627	437.13
518.827	435.83
519.027	442.68
519.227	504.14
519.427	492.85
519.626	487.11
519.826	473.04
520.026	470.27
520.226	455.46
520.425	449.72
520.625	423.98
520.825	427.13
521.024	411.77
521.224	415.47
521.424	401.4
521.623	392.14
521.823	374.56
522.023	382.15
522.222	391.96
522.422	418.25
522.621	469.9
522.821	513.4
523.02	547.28
523.22	577.82
523.419	600.04
523.619	595.97
523.818	610.04
524.017	615.22
524.217	596.34
524.416	610.78
524.616	594.3
524.815	530.43
525.014	517.1
525.214	520.62
525.413	488.78
525.612	517.1
525.812	472.86
526.011	437.5
526.21	463.6
526.409	445.64
526.608	469.53
526.808	449.72
527.007	512.29
527.206	514.51
527.405	501
527.604	526.54
527.803	471.19
528.003	487.3
528.202	457.12
528.401	513.4
528.6	432.32
528.799	475.26
528.998	424.36
529.197	442.31
529.396	422.69
529.595	444.9
529.794	401.03
529.993	414.54
530.192	431.95
530.39	460.64
530.589	466.93
530.788	441.76
530.987	424.73
531.186	426.58
531.385	407.88
531.583	413.62
531.782	401.03
531.981	374
532.18	404.92
532.379	397.51
532.577	403.99
532.776	434.91
532.975	422.5
533.173	426.02
533.372	409.92
533.571	414.54
533.769	414.17
533.968	473.6
534.166	428.06
534.365	421.58
534.564	410.47
534.762	409.73
534.961	397.7
535.159	463.97
535.358	475.26
535.556	481.93
535.755	503.96
535.953	498.59
536.151	551.91
536.35	505.07
536.548	506.18
536.747	519.14
536.945	507.85
537.143	503.03
537.342	469.16
537.54	486.19
537.738	467.67
537.937	457.31
538.135	461.2
538.333	485.63
538.531	503.59
538.73	541.54
538.928	586.16
539.126	568.38
539.324	645.03
539.522	611.33
539.72	597.45
539.919	580.6
540.117	540.06
540.315	531.91
540.513	526.36
540.711	497.11
540.909	446.57
541.107	442.13
541.305	374.74
541.503	424.73
541.701	327.16
541.899	347.34
542.097	387.7
542.295	349.38
542.493	361.78
542.691	343.64
542.888	371.96
543.086	367.15
543.284	368.08
543.482	413.06
543.68	371.78
543.878	393.07
544.075	339.57
544.273	383.81
544.471	352.9
544.669	410.84
544.866	369.19
545.064	384.92
545.262	369.56
545.459	379.55
545.657	386.22
545.855	359.38
546.052	316.61
546.25	372.71
546.447	392.7
546.645	387.14
546.842	416.77
547.04	443.42
547.238	398.25
547.435	453.61
547.633	404.92
547.83	409.73
548.027	373.26
548.225	378.07
548.422	392.88
548.62	358.45
548.817	381.41
549.014	365.49
549.212	368.82
549.409	367.71
549.606	330.68
549.804	333.46
550.001	380.3
550.198	398.81
550.396	391.96
550.593	429.54
550.79	488.59
550.987	475.82
551.184	456.38
551.382	514.14
551.579	431.95
551.776	429.91
551.973	412.69
552.17	418.99
552.367	454.53
552.564	394.36
552.761	395.85
552.958	365.67
553.155	384.55
553.353	381.59
553.55	331.61
553.746	331.98
553.943	311.24
554.14	348.08
554.337	331.98
554.534	316.06
554.731	298.65
554.928	310.87
555.125	318.09
555.322	286.99
555.519	248.12
555.715	286.44
555.912	255.89
556.109	276.99
556.306	289.03
556.503	334.2
556.699	334.01
556.896	371.04
557.093	380.3
557.289	353.08
557.486	342.16
557.683	405.47
557.879	342.71
558.076	376.04
558.273	381.96
558.469	396.96
558.666	355.3
558.862	364.19
559.059	342.53
559.255	376.41
559.452	329.94
559.648	360.67
559.845	362.52
560.041	413.62
560.238	432.32
560.434	414.17
560.631	375.3
560.827	375.48
561.023	376.41
561.22	349.56
561.416	351.42
561.612	345.49
561.809	341.23
562.005	370.48
562.201	395.66
562.398	449.9
562.594	432.87
562.79	456.94
562.986	453.05
563.182	461.2
563.379	446.39
563.575	447.87
563.771	441.76
563.967	443.42
564.163	389.92
564.359	418.62
564.555	411.77
564.751	439.17
564.947	464.71
565.144	501.37
565.34	594.86
565.536	649.1
565.732	621.51
565.928	647.25
566.123	675.39
566.319	685.01
566.515	665.02
566.711	655.02
566.907	663.91
567.103	715.74
567.299	626.14
567.495	677.24
567.691	607.26
567.886	631.88
568.082	581.34
568.278	571.53
568.474	524.32
568.669	555.79
568.865	479.52
569.061	522.66
569.257	551.72
569.452	605.59
569.648	682.42
569.844	772.58
570.039	837.56
570.235	944.93
570.43	928.82
570.626	953.45
570.822	1002.87
571.017	925.49
571.213	788.87
571.408	765.91
571.604	692.6
571.799	651.13
571.995	647.8
572.19	637.99
572.385	664.46
572.581	716.85
572.776	766.47
572.972	771.84
573.167	720.19
573.362	750.55
573.558	735.92
573.753	776.84
573.948	800.9
574.144	834.96
574.339	864.21
574.534	882.54
574.729	894.39
574.925	971.77
575.12	982.7
575.315	972.51
575.51	1023.05
575.705	1099.88
575.9	1081
576.096	1036.2
576.291	967.7
576.486	980.84
576.681	955.85
576.876	969
577.071	942.52
577.266	895.5
577.461	980.66
577.656	1106.92
577.851	1229.84
578.046	1316.48
578.241	1441.62
578.436	1505.12
578.631	1462.73
578.826	1474.76
579.021	1344.43
579.215	1313.7
579.41	1270.75
579.605	1191.7
579.8	1183.37
579.995	1177.45
580.189	1211.7
580.384	1218.18
580.579	1161.71
580.774	1141.53
580.968	1035.46
581.163	944.93
581.358	910.13
581.552	857.37
581.747	790.9
581.942	773.32
582.136	735.92
582.331	666.32
582.526	706.67
582.72	658.35
582.915	608.56
583.109	666.87
583.304	694.08
583.498	783.87
583.693	780.72
583.887	828.3
584.082	839.96
584.276	927.34
584.471	867.36
584.665	916.24
584.859	942.34
585.054	1056.75
585.248	1127.83
585.442	1191.15
585.637	1253.91
585.831	1235.02
586.025	1158.01
586.22	1111.54
586.414	964.37
586.608	912.35
586.802	847.37
586.997	779.43
587.191	731.11
587.385	718.34
587.579	672.79
587.773	659.1
587.967	655.39
588.162	744.99
588.356	727.96
588.55	821.08
588.744	842.37
588.938	899.2
589.132	905.31
589.326	974.55
589.52	1013.43
589.714	1078.41
589.908	1181.52
590.102	1263.35
590.296	1350.73
590.49	1386.27
590.684	1386.46
590.877	1402.56
591.071	1329.99
591.265	1389.6
591.459	1267.05
591.653	1305.19
591.847	1216.88
592.04	1156.71
592.234	1122.84
592.428	1036.57
592.622	1022.5
592.815	984.18
593.009	969.55
593.203	971.96
593.397	931.6
593.59	996.21
593.784	1060.45
593.977	1167.08
594.171	1243.54
594.365	1297.22
594.558	1318.14
594.752	1347.58
594.945	1242.98
595.139	1192.44
595.332	1127.65
595.526	1112.28
595.719	1083.22
595.913	1060.63
596.106	991.95
596.3	961.41
596.493	885.69
596.687	868.84
596.88	831.63
597.073	809.05
597.267	754.81
597.46	716.85
597.653	703.34
597.847	728.52
598.04	731.85
598.233	918.09
598.426	1036.57
598.62	1188.19
598.813	1299.08
599.006	1479.02
599.199	1486.98
599.392	1603.61
599.586	1624.9
599.779	1687.1
599.972	1703.76
600.165	1651.56
600.358	1546.03
600.551	1433.48
600.744	1239.65
600.937	1161.9
601.13	1048.6
601.323	989.17
601.516	915.86
601.709	876.25
601.902	839.04
602.095	792.94
602.288	760.91
602.481	723.7
602.674	678.9
602.867	705.75
603.06	699.64
603.252	798.12
603.445	867.73
603.638	903.09
603.831	956.59
604.024	937.89
604.216	957.52
604.409	1011.39
604.602	996.95
604.795	1076.55
604.987	1052.67
605.18	1113.39
605.373	1093.4
605.565	1057.12
605.758	1051.19
605.951	1053.41
606.143	1127.46
606.336	1174.67
606.528	1089.33
606.721	1064.15
606.913	952.89
607.106	896.98
607.298	757.03
607.491	694.82
607.683	605.41
607.876	566.53
608.068	520.07
608.261	530.62
608.453	583.01
608.646	672.61
608.838	747.59
609.03	885.69
609.223	947.52
609.415	973.07
609.607	964.18
609.8	1029.16
609.992	1055.82
610.184	1132.46
610.376	1150.23
610.569	1131.91
610.761	1061
610.953	997.32
611.145	895.13
611.337	829.04
611.529	754.99
611.722	699.27
611.914	626.88
612.106	603.93
612.298	577.82
612.49	601.52
612.682	612.44
612.874	581.9
613.066	574.49
613.258	625.77
613.45	603.93
613.642	609.3
613.834	626.33
614.026	640.21
614.218	652.8
614.41	656.5
614.602	671.87
614.793	705.75
614.985	662.24
615.177	648.54
615.369	627.62
615.561	565.79
615.753	533.21
615.944	547.46
616.136	537.1
616.328	615.96
616.52	681.87
616.711	758.69
616.903	771.47
617.095	778.5
617.286	678.16
617.478	628.18
617.67	548.02
617.861	530.8
618.053	493.59
618.244	420.47
618.436	398.07
618.627	406.95
618.819	476.56
619.01	606.7
619.202	636.88
619.393	743.33
619.585	759.25
619.776	819.41
619.968	794.98
620.159	820.53
620.351	807.2
620.542	800.9
620.733	781.46
620.925	742.77
621.116	700.75
621.307	625.59
621.499	581.71
621.69	517.1
621.881	438.05
622.072	369.37
622.264	338.09
622.455	325.5
622.646	291.06
622.837	260.89
623.028	255.15
623.22	264.41
623.411	268.66
623.602	293.29
623.793	316.43
623.984	361.97
624.175	415.84
624.366	417.32
624.557	417.88
624.748	395.29
624.939	421.76
625.13	431.95
625.321	404.36
625.512	394.18
625.703	401.95
625.894	383.44
626.085	357.71
626.276	375.85
626.467	405.84
626.658	445.27
626.848	473.97
627.039	443.98
627.23	417.88
627.421	413.8
627.612	370.85
627.802	392.33
627.993	341.05
628.184	329.76
628.375	310.13
628.565	306.99
628.756	269.77
628.947	323.65
629.137	416.77
629.328	462.31
629.519	480.26
629.709	558.76
629.9	551.91
630.09	557.28
630.281	504.33
630.471	512.48
630.662	455.46
630.852	467.3
631.043	443.79
631.233	420.47
631.424	392.7
631.614	356.97
631.805	299.95
631.995	297.54
632.185	234.05
632.376	255.34
632.566	217.94
632.756	215.35
632.947	203.5
633.137	219.24
633.327	288.84
633.518	257.93
633.708	286.44
633.898	296.62
634.088	265.33
634.279	233.12
634.469	232.38
634.659	283.66
634.849	257.93
635.039	249.78
635.229	261.07
635.42	258.11
635.61	240.71
635.8	230.71
635.99	233.68
636.18	251.26
636.37	231.64
636.56	283.66
636.75	289.03
636.94	269.59
637.13	265.33
637.32	279.22
637.51	232.93
637.7	249.04
637.89	209.61
638.079	232.38
638.269	197.95
638.459	182.77
638.649	165.18
638.839	205.17
639.029	196.84
639.218	223.49
639.408	195.35
639.598	249.97
639.788	278.11
639.977	269.4
640.167	294.21
640.357	283.66
640.546	257.37
640.736	292.73
640.926	262.37
641.115	288.47
641.305	236.27
641.495	240.71
641.684	222.38
641.874	218.31
642.063	197.95
642.253	186.65
642.442	169.44
642.632	186.28
642.821	132.23
643.011	160.37
643.2	141.67
643.39	145.19
643.579	153.7
643.768	157.03
643.958	147.78
644.147	168.7
644.336	131.12
644.526	178.32
644.715	128.15
644.904	177.58
645.094	193.32
645.283	101.68
645.472	153.33
645.661	145.19
645.851	101.5
646.04	175.92
646.229	120.38
646.418	165.92
646.607	170.18
646.796	159.62
646.986	145
647.175	162.22
647.364	179.25
647.553	181.65
647.742	157.59
647.931	164.44
648.12	141.67
648.309	193.69
648.498	166.1
648.687	208.13
648.876	183.32
649.065	205.91
649.254	211.83
649.443	227.01
649.632	294.4
649.82	273.85
650.009	239.23
650.198	255.34
650.387	282.36
650.576	283.1
650.765	304.02
650.953	312.72
651.142	317.35
651.331	345.12
651.52	328.65
651.708	381.22
651.897	521.73
652.086	1327.22
652.274	5185.61
652.463	15215.56
652.652	27000.31
652.84	39114.59
653.029	49377.8
653.217	56437.21
653.406	58287.92
653.594	55395.51
653.783	51409.74
653.972	46270.27
654.16	41439.59
654.349	37790.2
654.537	33676.52
654.725	29231.08
654.914	23865.39
655.102	18094.82
655.291	12372.76
655.479	7840.69
655.667	4785.74
655.856	2928.37
656.044	1778.55
656.232	1205.4
656.421	848.48
656.609	652.99
656.797	514.33
656.986	401.4
657.174	364.74
657.362	291.62
657.55	258.48
657.738	264.59
657.927	244.04
658.115	229.6
658.303	199.43
658.491	215.53
658.679	189.62
658.867	211.83
659.055	173.51
659.243	233.86
659.431	214.24
659.619	211.09
659.807	196.47
659.995	201.28
660.183	208.68
660.371	182.77
660.559	187.02
660.747	176.84
660.935	162.59
661.123	128.89
661.311	133.71
661.499	126.3
661.687	112.42
661.875	148.15
662.062	107.05
662.25	120.93
662.438	115.75
662.626	115.75
662.813	82.06
663.001	88.91
663.189	71.88
663.377	106.68
663.564	82.98
663.752	104.83
663.94	99.83
664.127	92.79
664.315	109.27
664.502	104.27
664.69	141.85
664.878	123.53
665.065	100.75
665.253	111.31
665.44	106.68
665.628	122.78
665.815	120.01
666.003	118.71
666.19	126.49
666.378	135.37
666.565	150.37
666.752	188.5
666.94	180.17
667.127	184.8
667.315	157.77
667.502	139.63
667.689	105.01
667.877	116.86
668.064	154.07
668.251	149.26
668.438	118.34
668.626	122.41
668.813	103.35
669	138.52
669.187	78.17
669.374	109.64
669.562	92.61
669.749	138.52
669.936	105.57
670.123	88.17
670.31	113.9
670.497	77.43
670.684	103.35
670.871	91.13
671.058	95.39
671.245	83.17
671.432	75.76
671.619	90.02
671.806	89.28
671.993	121.49
672.18	85.02
672.367	81.5
672.554	90.57
672.741	83.35
672.928	100.94
673.115	114.82
673.302	88.91
673.488	97.61
673.675	123.9
673.862	83.91
674.049	95.02
674.235	79.84
674.422	65.58
674.609	82.8
674.796	76.13
674.982	80.02
675.169	50.4
675.356	92.61
675.542	91.87
675.729	95.2
675.916	78.91
676.102	104.09
676.289	67.06
676.475	76.5
676.662	75.21
676.848	91.5
677.035	99.64
677.221	88.54
677.408	97.98
677.594	135
677.781	128.52
677.967	112.23
678.154	125.38
678.34	122.78
678.526	85.2
678.713	143.52
678.899	124.27
679.085	141.3
679.272	103.72
679.458	112.6
679.644	120.56
679.831	86.87
680.017	103.16
680.203	106.86
680.389	110.94
680.576	159.62
680.762	93.91
680.948	119.08
681.134	115.19
681.32	91.68
681.506	102.61
681.692	111.86
681.879	106.12
682.065	100.01
682.251	116.49
682.437	87.43
682.623	72.8
682.809	38
682.995	55.4
683.181	93.35
683.367	90.02
683.553	38.92
683.739	56.51
683.924	68.91
684.11	67.06
684.296	95.39
684.482	89.83
684.668	88.91
684.854	52.44
685.04	74.28
685.225	66.14
685.411	77.61
685.597	68.17
685.783	99.09
685.968	59.47
686.154	72.06
686.34	62.99
686.526	81.87
686.711	61.88
686.897	125.38
687.083	94.83
687.268	115.19
687.454	103.72
687.639	102.61
687.825	111.49
688.01	116.86
688.196	107.23
688.382	124.64
688.567	73.36
688.752	119.08
688.938	59.84
689.123	97.24
689.309	85.94
689.494	34.66
689.68	65.21
689.865	96.87
690.05	68.36
690.236	76.32
690.421	60.03
690.606	75.21
690.792	64.1
690.977	72.62
691.162	69.47
691.348	81.32
691.533	67.43
691.718	73.54
691.903	77.98
692.089	78.54
692.274	58.92
692.459	92.61
692.644	92.61
692.829	112.05
693.014	64.29
693.199	60.03
693.384	48.55
693.569	86.87
693.755	64.84
693.94	75.58
694.125	92.05
694.31	29.85
694.495	64.47
694.68	56.32
694.864	61.32
695.049	44.29
695.234	47.44
695.419	92.24
695.604	56.51
695.789	60.58
695.974	90.57
696.159	49.85
696.344	63.36
696.528	62.99
696.713	39.48
696.898	78.91
697.083	63.36
697.267	45.03
697.452	46.7
697.637	64.29
697.822	39.85
698.006	89.46
698.191	70.95
698.375	85.2
698.56	65.77
698.745	91.5
698.929	68.36
699.114	72.99
699.298	73.91
699.483	126.67
699.668	71.32
699.852	67.43
700.037	75.58
700.221	52.81
700.405	111.12
700.59	138.15
700.774	85.39
700.959	85.39
701.143	86.87
701.328	130.56
701.512	87.61
701.696	91.5
701.881	108.35
702.065	102.61
702.249	90.94
702.433	114.08
702.618	83.54
702.802	99.64
702.986	75.21
703.17	216.27
703.355	53.36
703.539	43.74
703.723	67.06
703.907	77.8
704.091	49.85
704.275	49.1
704.46	12.82
704.644	56.88
704.828	36.52
705.012	46.7
705.196	65.58
705.38	29.48
705.564	78.35
705.748	69.65
705.932	89.83
706.116	70.39
706.3	77.06
706.484	92.98
706.668	94.46
706.851	105.94
707.035	92.42
707.219	115.19
707.403	105.01
707.587	94.28
707.771	103.9
707.954	117.6
708.138	128.89
708.322	120.75
708.506	77.43
708.689	106.86
708.873	75.02
709.057	94.09
709.241	95.94
709.424	72.8
709.608	77.06
709.792	76.13
709.975	66.14
710.159	65.95
710.342	75.02
710.526	84.46
710.709	83.17
710.893	87.24
711.077	73.36
711.26	89.83
711.443	62.99
711.627	101.68
711.81	62.25
711.994	52.07
712.177	68.17
712.361	92.24
712.544	53.73
712.727	84.83
712.911	89.65
713.094	108.35
713.277	85.2
713.461	106.86
713.644	105.38
713.827	135.93
714.011	106.12
714.194	133.52
714.377	135.74
714.56	186.65
714.743	182.95
714.927	157.22
715.11	189.43
715.293	167.96
715.476	130
715.659	182.58
715.842	141.11
716.025	129.63
716.208	120.75
716.391	179.43
716.575	172.95
716.758	168.7
716.941	150.92
717.124	151.48
717.306	159.07
717.489	124.82
717.672	127.6
717.855	142.41
718.038	105.75
718.221	136.48
718.404	92.98
718.587	97.05
718.77	100.75
718.952	122.78
719.135	115.56
719.318	140.74
719.501	112.6
719.684	182.21
719.866	143.7
720.049	160.92
720.232	150.18
720.414	197.02
720.597	179.43
720.78	205.91
720.962	172.4
721.145	214.61
721.328	189.06
721.51	226.27
721.693	203.31
721.875	226.83
722.058	226.64
722.24	263.85
722.423	262.56
722.605	251.08
722.788	231.82
722.97	284.03
723.153	244.97
723.335	268.66
723.518	248.12
723.7	312.35
723.882	273.85
724.065	281.07
724.247	252.19
724.429	228.68
724.612	234.23
724.794	191.84
724.976	194.06
725.159	222.01
725.341	212.2
725.523	239.23
725.705	211.83
725.888	265.7
726.07	217.94
726.252	216.27
726.434	254.04
726.616	219.79
726.798	173.69
726.98	221.27
727.162	229.6
727.345	268.11
727.527	229.42
727.709	236.45
727.891	245.71
728.073	295.69
728.255	231.08
728.437	264.22
728.619	182.21
728.801	209.79
728.982	215.53
729.164	205.72
729.346	191.65
729.528	209.79
729.71	167.77
729.892	171.47
730.074	156.29
730.255	170.55
730.437	151.48
730.619	117.6
730.801	153.15
730.983	115.56
731.164	155.92
731.346	171.29
731.528	174.25
731.709	228.86
731.891	235.53
732.073	245.34
732.254	252.56
732.436	227.2
732.617	187.39
732.799	215.53
732.981	202.57
733.162	205.91
733.344	139.82
733.525	179.25
733.707	179.62
733.888	197.76
734.07	161.85
734.251	176.29
734.433	144.26
734.614	147.04
734.795	111.31
734.977	125.75
735.158	85.94
735.34	119.82
735.521	71.5
735.702	100.2
735.883	113.34
736.065	123.53
736.246	137.59
736.427	154.07
736.609	167.77
736.79	143.52
736.971	120.01
737.152	104.64
737.333	101.87
737.514	95.39
737.696	123.53
737.877	90.02
738.058	84.65
738.239	70.21
738.42	107.42
738.601	82.43
738.782	64.47
738.963	93.91
739.144	45.03
739.325	94.65
739.506	85.2
739.687	83.72
739.868	87.8
740.049	98.53
740.23	114.64
740.411	134.63
740.592	95.2
740.773	77.61
740.953	105.01
741.134	137.41
741.315	140.37
741.496	184.06
741.677	191.65
741.857	216.83
742.038	181.65
742.219	194.61
742.4	193.5
742.58	167.96
742.761	164.81
742.942	191.1
743.122	189.06
743.303	175.92
743.484	175.18
743.664	201.83
743.845	195.91
744.025	176.47
744.206	176.29
744.386	195.17
744.567	127.6
744.748	153.15
744.928	174.99
745.108	135.74
745.289	123.34
745.469	148.89
745.65	145.93
745.83	111.49
746.011	102.98
746.191	131.3
746.371	77.24
746.552	101.68
746.732	98.16
746.912	134.08
747.093	115.75
747.273	130.19
747.453	95.39
747.633	140.37
747.814	93.53
747.994	154.81
748.174	125.75
748.354	121.3
748.534	122.04
748.715	145.19
748.895	158.88
749.075	160.92
749.255	200.72
749.435	204.8
749.615	191.84
749.795	208.68
749.975	194.98
750.155	214.79
750.335	214.79
750.515	240.71
750.695	224.79
750.875	254.78
751.055	221.64
751.235	212.2
751.415	197.76
751.595	199.61
751.775	183.88
751.954	152.59
752.134	159.62
752.314	164.25
752.494	143.7
752.674	125.56
752.854	152.59
753.033	130.93
753.213	107.97
753.393	145.74
753.572	144.81
753.752	131.12
753.932	115.56
754.111	120.93
754.291	144.44
754.471	135.56
754.65	122.78
754.83	132.78
755.01	126.3
755.189	113.9
755.369	96.5
755.548	141.11
755.728	159.25
755.907	176.1
756.087	167.96
756.266	261.63
756.446	211.65
756.625	281.62
756.804	314.02
756.984	247.37
757.163	224.42
757.343	264.41
757.522	195.17
757.701	224.79
757.881	187.39
758.06	120.38
758.239	154.63
758.418	170.55
758.598	172.03
758.777	140.74
758.956	135.74
759.135	130.19
759.315	143.52
759.494	163.51
759.673	128.52
759.852	97.61
760.031	76.32
760.21	74.84
760.389	75.76
760.568	77.61
760.748	86.69
760.927	72.99
761.106	101.13
761.285	138.71
761.464	112.79
761.643	177.21
761.822	137.59
762	176.47
762.179	124.82
762.358	151.48
762.537	143.7
762.716	169.62
762.895	146.11
763.074	147.59
763.253	132.23
763.431	117.23
763.61	125.19
763.789	119.08
763.968	109.64
764.147	133.52
764.325	118.71
764.504	111.86
764.683	85.02
764.861	153.33
765.04	115.56
765.219	133.34
765.397	127.41
765.576	176.29
765.755	183.51
765.933	148.33
766.112	152.96
766.29	127.78
766.469	122.23
766.647	127.6
766.826	98.16
767.004	124.08
767.183	111.31
767.361	110.94
767.54	140
767.718	137.41
767.897	94.83
768.075	88.17
768.253	52.07
768.432	114.64
768.61	94.28
768.788	97.79
768.967	89.83
769.145	90.39
769.323	89.46
769.501	104.27
769.68	87.06
769.858	84.83
770.036	84.65
770.214	113.71
770.393	64.1
770.571	96.31
770.749	53.92
770.927	47.99
771.105	89.46
771.283	75.95
771.461	50.59
771.639	69.65
771.817	67.8
771.995	57.25
772.173	56.69
772.351	55.58
772.529	40.4
772.707	77.8
772.885	40.59
773.063	81.87
773.241	54.1
773.419	39.48
773.597	22.45
773.775	31.52
773.953	62.06
774.131	45.4
774.308	55.4
774.486	62.62
774.664	50.4
774.842	55.58
775.02	72.62
775.197	87.8
775.375	71.69
775.553	70.76
775.73	45.4
775.908	83.91
776.086	65.4
776.263	86.5
776.441	75.21
776.619	50.59
776.796	64.47
776.974	96.13
777.151	65.03
777.329	76.87
777.506	82.98
777.684	78.72
777.861	100.2
778.039	93.16
778.216	95.94
778.394	91.13
778.571	91.13
778.749	46.7
778.926	53.55
779.103	62.43
779.281	45.22
779.458	107.23
779.635	51.14
779.813	70.58
779.99	48.18
780.167	45.03
780.345	61.14
780.522	66.14
780.699	40.03
780.876	30.78
781.054	32.07
781.231	41.51
781.408	42.26
781.585	44.29
781.762	17.26
781.939	24.48
782.116	29.67
782.294	33.37
782.471	11.89
782.648	23.56
782.825	14.49
783.002	19.3
783.179	36.15
783.356	22.45
783.533	21.52
783.71	28.56
783.887	29.3
784.064	51.14
784.24	40.4
784.417	34.11
784.594	10.41
784.771	28.37
784.948	45.4
785.125	15.78
785.302	10.97
785.478	66.14
785.655	34.85
785.832	1.71
786.009	33.37
786.185	45.96
786.362	62.8
786.539	29.67
786.715	62.8
786.892	57.62
787.069	65.4
787.245	82.61
787.422	43.18
787.599	35.22
787.775	42.26
787.952	41.33
788.128	47.62
788.305	51.33
788.481	8.75
788.658	54.1
788.834	51.14
789.011	17.82
789.187	63.54
789.364	38.37
789.54	45.59
789.717	80.95
789.893	43.74
790.069	53.92
790.246	40.96
790.422	44.66
790.598	50.03
790.775	42.07
790.951	72.62
791.127	27.44
791.304	28.37
791.48	41.88
791.656	45.4
791.832	47.62
792.008	43.74
792.185	23
792.361	46.14
792.537	66.32
792.713	63.73
792.889	72.25
793.065	56.69
793.241	45.22
793.417	54.66
793.593	53.55
793.769	55.58
793.945	43.74
794.121	46.88
794.297	40.4
794.473	33.37
794.649	62.06
794.825	20.41
795.001	73.54
795.177	32.44
795.353	47.25
795.529	50.77
795.705	62.8
795.881	69.47
796.056	50.77
796.232	32.44
796.408	77.98
796.584	35.41
796.76	78.54
796.935	23.56
797.111	22.82
797.287	25.96
797.462	61.88
797.638	63.91
797.814	36.33
797.989	41.7
798.165	76.13
798.341	72.8
798.516	43.18
798.692	25.78
798.867	65.21
799.043	38
799.218	67.06
799.394	9.67
799.569	88.35
799.745	48.73
799.92	40.96
800.096	49.47
800.271	76.13
800.447	83.72
800.622	37.44
800.797	-1.99
800.973	3.56
801.148	24.3
801.323	44.85
801.499	2.08
801.674	40.22
801.849	28.19
802.025	52.07
802.2	52.99
802.375	47.25
802.55	32.81
802.725	14.12
802.901	20.23
803.076	41.14
803.251	34.29
803.426	43.18
803.601	38.92
803.776	3.38
803.951	-8.65
804.127	13.93
804.302	15.97
804.477	38.18
804.652	28.37
804.827	22.63
805.002	29.3
805.177	43
805.352	57.62
805.526	32.44
805.701	54.66
805.876	35.41
806.051	24.48
806.226	45.96
806.401	44.29
806.576	41.7
806.751	32.81
806.925	10.78
807.1	7.45
807.275	22.08
807.45	24.3
807.625	95.94
807.799	29.85
807.974	51.88
808.149	-7.17
808.323	37.07
808.498	60.21
808.673	28
808.847	-1.25
809.022	41.51
809.197	23.37
809.371	31.89
809.546	56.32
809.72	23.19
809.895	29.3
810.069	3.75
810.244	37.26
810.418	47.07
810.593	51.51
810.767	35.96
810.942	31.89
811.116	63.54
811.29	18.93
811.465	17.63
811.639	13.56
811.814	41.88
811.988	37.44
812.162	15.97
812.337	19.67
812.511	30.59
812.685	9.67
812.859	21.15
813.034	21.15
813.208	41.51
813.382	-16.43
813.556	27.44
813.73	34.29
813.905	0.6
814.079	20.6
814.253	2.45
814.427	53.92
814.601	-0.69
814.775	33.92
814.949	8.56
815.123	26.52
815.297	21.89
815.471	21.34
815.645	15.78
815.819	23.37
815.993	18.56
816.167	9.12
816.341	-0.32
816.515	7.27
816.689	-0.14
816.863	19.3
817.037	22.45
817.21	13.75
817.384	2.08
817.558	38.18
817.732	48.73
817.906	23.74
818.079	1.34
818.253	34.29
818.427	3.38
818.601	15.78
818.774	43.74
818.948	-6.62
819.122	52.25
819.295	10.04
819.469	6.16
819.643	11.71
819.816	15.97
819.99	29.11
820.163	18.74
820.337	5.97
820.511	30.22
820.684	8.38
820.858	44.29
821.031	4.86
821.205	10.41
821.378	22.63
821.551	34.48
821.725	30.78
821.898	28.19
822.072	32.44
822.245	60.95
822.418	16.15
822.592	-1.43
822.765	23.56
822.938	51.51
823.112	15.04
823.285	55.95
823.458	30.04
823.631	30.59
823.805	17.63
823.978	53.55
824.151	12.08
824.324	41.33
824.497	39.85
824.671	37.81
824.844	21.89
825.017	25.59
825.19	-8.47
825.363	-8.28
825.536	13.19
825.709	61.32
825.882	21.52
826.055	29.67
826.228	20.78
826.401	21.89
826.574	11.34
826.747	19.3
826.92	31.89
827.093	23.37
827.266	31.33
827.439	12.45
827.612	21.89
827.785	6.34
827.957	23.19
828.13	14.67
828.303	-0.14
828.476	21.15
828.649	-6.99
828.821	31.52
828.994	21.71
829.167	5.23
829.34	27.44
829.512	30.04
829.685	29.67
829.858	37.81
830.03	34.48
830.203	41.33
830.375	45.22
830.548	3.56
830.721	-12.36
830.893	21.89
831.066	9.67
831.238	42.63
831.411	49.85
831.583	25.22
831.756	50.59
831.928	12.63
832.101	28.93
832.273	40.4
832.446	17.82
832.618	41.88
832.79	17.45
832.963	10.23
833.135	15.04
833.307	50.4
833.48	35.78
833.652	38.37
833.824	60.58
833.997	41.14
834.169	42.44
834.341	40.03
834.513	23.19
834.686	40.22
834.858	14.12
835.03	14.86
835.202	-6.62
835.374	10.23
835.546	24.11
835.718	21.52
835.891	5.79
836.063	41.14
836.235	31.33
836.407	13.19
836.579	20.23
836.751	0.05
836.923	6.34
837.095	26.15
837.267	23.56
837.439	31.33
837.611	-0.32
837.782	24.11
837.954	40.59
838.126	12.26
838.298	26.7
838.47	34.29
838.642	-0.51
838.814	55.21
838.985	-8.47
839.157	31.15
839.329	-14.95
839.501	45.4
839.672	2.45
839.844	15.04
840.016	5.97
840.188	34.66
840.359	24.85
840.531	4.49
840.702	-1.8
840.874	50.96
841.046	6.34
841.217	11.89
841.389	1.16
841.56	17.08
841.732	-20.5
841.903	21.34
842.075	-30.5
842.246	20.97
842.418	30.78
842.589	14.3
842.761	41.88
842.932	21.15
843.104	35.96
843.275	14.12
843.446	-0.32
843.618	4.67
843.789	14.12
843.96	-10.88
844.132	4.49
844.303	19.85
844.474	19.67
844.646	9.67
844.817	-8.65
844.988	15.41
845.159	36.7
845.331	38.37
845.502	-1.06
845.673	25.59
845.844	-14.76
846.015	39.85
846.186	-1.43
846.357	8.75
846.528	1.9
846.7	17.63
846.871	6.71
847.042	2.45
847.213	32.81
847.384	87.43
847.555	28
847.726	5.6
847.897	13.75
848.067	-18.84
848.238	43.37
848.409	16.89
848.58	26.15
848.751	41.51
848.922	28.37
849.093	44.66
849.264	8.19
849.434	25.41
849.605	-2.18
849.776	13.75
849.947	3.56
850.117	15.97
850.288	19.3
850.459	31.15
850.63	15.23
850.8	43.74
850.971	48.36
851.142	29.48
851.312	-15.69
851.483	-10.32
851.653	23.93
851.824	15.23
851.995	3.19
852.165	50.77
852.336	15.23
852.506	56.88
852.677	76.13
852.847	25.04
853.018	40.96
853.188	55.4
853.358	52.62
853.529	41.33
853.699	45.03
853.87	35.41
854.04	-12.36
854.21	40.03
854.381	15.41
854.551	63.17
854.721	9.67
854.892	28.19
855.062	-1.06
855.232	-1.06
855.402	40.96
855.573	23
855.743	45.22
855.913	23
856.083	9.12
856.253	26.89
856.423	-25.87
856.594	16.34
856.764	-7.17
856.934	10.23
857.104	-0.69
857.274	22.82
857.444	-40.13
857.614	-9.58
857.784	10.23
857.954	14.12
858.124	-3.1
858.294	21.34
858.464	0.23
858.634	4.86
858.804	15.23
858.974	15.04
859.143	-4.4
859.313	19.11
859.483	-8.28
859.653	-10.32
859.823	13.75
859.993	8.56
860.162	31.7
860.332	10.04
860.502	-4.21
860.672	38.92
860.841	18.37
861.011	15.04
861.181	-30.87
861.35	39.11
861.52	30.59
861.69	-6.25
861.859	9.67
862.029	42.44
862.198	1.16
862.368	23.74
862.538	10.78
862.707	30.96
862.877	18.74
863.046	20.41
863.216	3.93
863.385	19.11
863.555	-5.88
863.724	63.73
863.893	4.12
864.063	56.88
864.232	26.7
864.402	21.15
864.571	-7.73
864.74	21.34
864.91	-12.17
865.079	44.29
865.248	13.19
865.418	42.63
865.587	-3.29
865.756	14.3
865.925	24.67
866.094	37.63
866.264	27.82
866.433	24.48
866.602	23.74
866.771	25.78
866.94	7.27
867.109	29.11
867.278	29.85
867.448	32.26
867.617	3.75
867.786	52.99
867.955	-3.84
868.124	12.45
868.293	33.37
868.462	12.26
868.631	26.89
868.8	41.14
868.969	-2.36
869.137	11.34
869.306	12.26
869.475	22.08
869.644	-19.21
869.813	-5.51
869.982	17.82
870.151	23
870.319	7.82
870.488	11.52
870.657	18.56
870.826	10.41
870.995	-9.4
871.163	2.27
871.332	23.37
871.501	32.26
871.669	-15.5
871.838	30.04
872.007	32.44
872.175	29.3
872.344	14.3
872.512	-12.36
872.681	11.15
872.85	11.71
873.018	3.56
873.187	12.08
873.355	27.44
873.524	30.22
873.692	20.78
873.861	36.89
874.029	16.89
874.197	32.81
874.366	22.45
874.534	27.26
874.703	-26.98
874.871	13.93
875.039	-23.09
875.208	8.93
875.376	16.15
875.544	29.85
875.713	32.63
875.881	16.15
876.049	36.33
876.217	14.67
876.386	29.11
876.554	35.78
876.722	46.14
876.89	35.22
877.058	11.52
877.226	6.53
877.395	0.79
877.563	8.19
877.731	-13.84
877.899	4.49
878.067	8.38
878.235	23.93
878.403	7.82
878.571	38
878.739	27.63
878.907	50.22
879.075	3.19
879.243	30.59
879.411	-14.58
879.579	14.67
879.747	27.82
879.914	26.33
880.082	-5.32
880.25	0.42
880.418	31.7
880.586	16.34
880.754	52.99
880.921	24.3
881.089	-0.51
881.257	33.92
881.425	-6.43
881.592	19.85
881.76	28.93
881.928	37.63
882.095	2.82
882.263	47.62
882.431	3.93
882.598	16.71
882.766	-13.84
882.933	15.04
883.101	-0.51
883.269	6.16
883.436	20.41
883.604	13.75
883.771	31.7
883.939	11.71
884.106	-0.69
884.273	51.88
884.441	21.71
884.608	10.6
884.776	8.19
884.943	38.55
885.11	-4.95
885.278	22.82
885.445	0.79
885.613	2.82
885.78	-24.21
885.947	11.52
886.114	-0.88
886.282	23.74
886.449	11.34
886.616	21.71
886.783	-12.54
886.951	26.52
887.118	9.3
887.285	44.48
887.452	23.19
887.619	23.37
887.786	-11.62
887.953	45.22
888.12	22.45
888.287	51.51
888.455	59.47
888.622	54.1
888.789	15.04
888.956	52.25
889.123	-6.43
889.29	36.89
889.456	25.78
889.623	20.6
889.79	0.6
889.957	41.88
890.124	26.7
890.291	43.18
890.458	-2.73
890.625	44.29
890.791	36.33
890.958	48.36
891.125	43.92
891.292	30.22
891.459	-2.92
891.625	31.52
891.792	37.07
891.959	-4.77
892.125	-18.47
892.292	17.45
892.459	16.71
892.625	21.15
892.792	18.93
892.959	0.23
893.125	31.52
893.292	-31.98
893.458	29.85
893.625	21.89
893.791	31.15
893.958	-9.77
894.124	14.86
894.291	-2.18
894.457	-0.69
894.624	35.04
894.79	16.52
894.957	20.04
895.123	25.96
895.289	29.67
895.456	13.75
895.622	12.08
895.788	7.27
895.955	11.71
896.121	19.11
896.287	57.62
896.454	2.82
896.62	4.86
896.786	-21.24
896.952	18.93
897.119	4.3
897.285	10.6
897.451	-5.14
897.617	22.82
897.783	16.89
897.949	24.3
898.115	15.23
898.281	-7.73
898.448	29.67
898.614	12.82
898.78	14.12
898.946	18.93
899.112	29.11
899.278	-19.21
899.444	12.26
899.61	58.18
899.775	-7.17
899.941	32.07
900.107	-12.73
900.273	26.7
900.439	6.16
900.605	4.49
900.771	21.15
900.937	28.37
901.102	6.16
901.268	9.12
901.434	-0.14
901.6	24.85
901.766	-19.21
901.931	21.89
902.097	18.93
902.263	17.45
902.428	43.92
902.594	3.56
902.76	32.07
902.925	33.55
903.091	28.74
903.256	12.63
903.422	32.63
903.588	11.52
903.753	-9.58
903.919	21.52
904.084	18
904.25	29.3
904.415	34.29
904.581	20.23
904.746	31.89
904.912	21.89
905.077	5.04
905.242	-6.25
905.408	-0.32
905.573	0.05
905.738	25.04
905.904	137.22
906.069	137.22
