Data from FLMT087451__4__13-45-39-183.txt Node

Date: Tue Jun 04 13:45:39 JST 2024
User: power
Spectrometer: FLMT08745
Trigger mode: 0
Integration Time (sec): 3.600000E-2
Scans to average: 11
Electric dark correction enabled: true
Nonlinearity correction enabled: false
Boxcar width: 0
XAxis mode: Wavelengths
Number of Pixels in Spectrum: 3648
>>>>>Begin Spectral Data<<<<<
194.923	-63.67
195.148	-63.67
195.372	-63.67
195.597	-48.49
195.821	-59.78
196.046	16.49
196.271	-9.8
196.495	-19.24
196.72	23.71
196.944	-20.72
197.169	-1.1
197.393	4.83
197.618	14.46
197.842	-9.8
198.067	18.71
198.291	-34.79
198.516	17.23
198.74	-42.56
198.964	47.41
199.189	32.23
199.413	67.59
199.637	47.78
199.862	49.26
200.086	20.19
200.31	67.77
200.535	40.37
200.759	53.52
200.983	10.94
201.207	34.63
201.432	27.97
201.656	63.14
201.88	17.6
202.104	45.19
202.328	61.85
202.552	47.78
202.777	42.41
203.001	55
203.225	38.52
203.449	14.09
203.673	33.89
203.897	45.56
204.121	19.08
204.345	55.37
204.569	1.5
204.793	18.16
205.017	19.27
205.241	32.23
205.465	18.9
205.689	44.45
205.912	23.9
206.136	17.97
206.36	32.97
206.584	43.33
206.808	20.75
207.032	46.11
207.255	15.38
207.479	83.14
207.703	21.3
207.927	19.45
208.15	20.38
208.374	63.51
208.598	22.6
208.822	50.74
209.045	-3.13
209.269	42.96
209.492	75.18
209.716	34.26
209.94	33.15
210.163	45.93
210.387	36.3
210.61	55.18
210.834	-18.68
211.057	27.6
211.281	11.49
211.504	32.04
211.728	23.53
211.951	74.99
212.175	57.22
212.398	40.19
212.622	13.71
212.845	80.73
213.068	12.42
213.292	36.67
213.515	8.35
213.738	38.52
213.962	35.56
214.185	32.23
214.408	42.96
214.631	72.96
214.855	33.89
215.078	15.94
215.301	24.27
215.524	31.67
215.747	31.67
215.971	43.52
216.194	8.9
216.417	33.34
216.64	14.83
216.863	149.04
217.086	43.71
217.309	28.9
217.532	1.68
217.755	26.12
217.978	19.64
218.201	73.33
218.424	38.34
218.647	10.94
218.87	20.01
219.093	51.3
219.316	35.93
219.539	20.38
219.762	24.27
219.985	38.52
220.207	-2.76
220.43	10.01
220.653	21.3
220.876	35.56
221.099	53.89
221.321	27.23
221.544	18.71
221.767	42.41
221.99	21.12
222.212	39.63
222.435	21.12
222.658	49.44
222.88	7.05
223.103	47.96
223.326	5.2
223.548	52.41
223.771	22.6
223.993	35.56
224.216	36.86
224.438	15.2
224.661	27.41
224.883	39.63
225.106	63.88
225.328	28.34
225.551	45.74
225.773	11.31
225.996	22.42
226.218	30.38
226.44	54.26
226.663	42.22
226.885	22.05
227.108	30.19
227.33	43.52
227.552	16.49
227.774	19.64
227.997	35
228.219	28.34
228.441	56.85
228.663	69.07
228.886	38.52
229.108	27.04
229.33	22.23
229.552	5.57
229.774	28.34
229.996	27.23
230.219	59.81
230.441	22.05
230.663	64.07
230.885	-3.32
231.107	25.01
231.329	11.49
231.551	53.52
231.773	-19.05
231.995	33.34
232.217	35.37
232.439	30.01
232.661	6.87
232.883	41.85
233.105	5.94
233.326	11.68
233.548	25.93
233.77	15.38
233.992	30.93
234.214	17.97
234.436	23.71
234.657	12.42
234.879	54.63
235.101	25.38
235.323	14.46
235.544	22.79
235.766	17.23
235.988	32.23
236.21	25.19
236.431	23.9
236.653	37.04
236.874	46.67
237.096	23.34
237.318	-1.65
237.539	32.78
237.761	47.22
237.982	-1.47
238.204	75.92
238.425	-0.73
238.647	29.82
238.868	-5.17
239.09	19.82
239.311	0.2
239.533	37.41
239.754	30.75
239.975	16.86
240.197	8.72
240.418	25.93
240.64	13.34
240.861	45.56
241.082	6.87
241.304	21.12
241.525	10.01
241.746	13.34
241.967	-26.09
242.189	32.78
242.41	13.53
242.631	58.7
242.852	6.49
243.073	52.78
243.294	13.9
243.516	26.86
243.737	16.31
243.958	5.38
244.179	27.41
244.4	53.7
244.621	8.72
244.842	38.89
245.063	26.86
245.284	38.52
245.505	17.97
245.726	37.6
245.947	29.45
246.168	5.57
246.389	-2.95
246.61	41.3
246.831	32.04
247.052	18.34
247.272	44.63
247.493	12.97
247.714	38.52
247.935	8.53
248.156	20.38
248.376	34.45
248.597	35
248.818	10.01
249.039	21.68
249.259	40
249.48	7.79
249.701	25.56
249.921	5.01
250.142	-19.42
250.363	27.23
250.583	32.23
250.804	35
251.025	45.74
251.245	27.23
251.466	29.64
251.686	19.45
251.907	9.83
252.127	43.33
252.348	10.94
252.568	-3.87
252.789	17.6
253.009	14.46
253.23	64.81
253.45	12.42
253.67	45.93
253.891	7.24
254.111	50.18
254.331	-8.5
254.552	22.79
254.772	3.16
254.992	20.19
255.213	16.86
255.433	52.41
255.653	12.6
255.873	30.75
256.093	54.63
256.314	23.9
256.534	-9.61
256.754	42.96
256.974	-1.47
257.194	16.31
257.414	13.34
257.634	12.42
257.855	5.01
258.075	-6.46
258.295	13.71
258.515	24.45
258.735	9.46
258.955	48.89
259.175	-7.39
259.395	31.86
259.615	36.67
259.835	47.22
260.054	1.5
260.274	24.45
260.494	22.79
260.714	63.88
260.934	37.41
261.154	24.27
261.374	10.38
261.593	21.68
261.813	6.49
262.033	21.49
262.253	22.23
262.472	26.86
262.692	19.45
262.912	43.89
263.132	20.19
263.351	37.97
263.571	38.52
263.791	38.89
264.01	37.04
264.23	20.93
264.449	8.16
264.669	75.73
264.888	30.01
265.108	24.82
265.328	39.26
265.547	25.75
265.767	40
265.986	2.24
266.205	34.63
266.425	27.23
266.644	21.12
266.864	5.57
267.083	57.96
267.303	30.01
267.522	35
267.741	12.05
267.961	44.45
268.18	16.68
268.399	35
268.618	55.74
268.838	28.71
269.057	13.9
269.276	31.86
269.495	29.82
269.715	45.37
269.934	10.38
270.153	36.49
270.372	25.01
270.591	37.04
270.81	33.71
271.029	27.78
271.249	52.41
271.468	19.27
271.687	59.07
271.906	27.78
272.125	52.96
272.344	45.74
272.563	27.78
272.782	24.45
273.001	24.64
273.22	30.01
273.439	38.34
273.657	36.12
273.876	42.59
274.095	5.75
274.314	35.19
274.533	58.52
274.752	30.01
274.971	25.19
275.189	44.82
275.408	44.08
275.627	46.11
275.846	47.59
276.064	20.56
276.283	22.6
276.502	28.34
276.72	-7.57
276.939	54.44
277.158	19.64
277.376	33.71
277.595	42.59
277.814	27.41
278.032	51.85
278.251	12.42
278.469	4.09
278.688	37.78
278.906	60.74
279.125	39.45
279.343	16.31
279.562	36.12
279.78	-0.73
279.999	54.81
280.217	24.08
280.435	19.45
280.654	4.64
280.872	29.08
281.091	5.75
281.309	51.11
281.527	37.41
281.746	31.49
281.964	16.86
282.182	35
282.4	49.63
282.619	51.11
282.837	50.37
283.055	37.6
283.273	18.16
283.491	37.04
283.71	32.41
283.928	15.75
284.146	17.79
284.364	33.52
284.582	5.75
284.8	57.03
285.018	53.15
285.236	30.19
285.454	14.64
285.672	45
285.89	15.57
286.108	44.26
286.326	21.3
286.544	30.93
286.762	20.93
286.98	32.04
287.198	57.4
287.416	108.68
287.634	37.23
287.851	43.52
288.069	24.45
288.287	41.85
288.505	26.3
288.723	39.82
288.94	32.23
289.158	39.26
289.376	67.03
289.594	24.82
289.811	8.16
290.029	44.82
290.247	55.37
290.464	47.41
290.682	16.12
290.9	37.04
291.117	35.19
291.335	44.63
291.552	9.64
291.77	50
291.987	22.79
292.205	40.37
292.422	34.45
292.64	63.88
292.857	15.38
293.075	44.63
293.292	46.85
293.51	49.81
293.727	36.3
293.945	41.11
294.162	25.75
294.379	44.08
294.597	40
294.814	32.23
295.031	45.74
295.249	47.04
295.466	37.97
295.683	33.89
295.9	51.11
296.118	15.2
296.335	14.46
296.552	72.21
296.769	43.71
296.986	14.83
297.204	21.86
297.421	54.07
297.638	19.45
297.855	35.37
298.072	49.63
298.289	59.63
298.506	36.86
298.723	56.48
298.94	37.41
299.157	55.55
299.374	53.7
299.591	79.8
299.808	43.89
300.025	15.57
300.242	16.86
300.459	66.66
300.676	26.67
300.893	35.37
301.109	44.26
301.326	85.91
301.543	49.63
301.76	23.71
301.977	52.59
302.193	42.22
302.41	55.74
302.627	25.38
302.844	17.05
303.06	50.55
303.277	33.34
303.494	52.78
303.71	48.52
303.927	49.07
304.144	21.68
304.36	50.55
304.577	36.12
304.793	67.77
305.01	21.86
305.227	64.99
305.443	22.97
305.66	87.39
305.876	14.27
306.093	59.63
306.309	38.71
306.526	34.26
306.742	59.63
306.958	66.66
307.175	55.74
307.391	55.37
307.608	61.11
307.824	71.47
308.04	47.59
308.257	45
308.473	69.07
308.689	52.04
308.905	64.81
309.122	44.63
309.338	38.15
309.554	56.85
309.77	45.74
309.986	60.37
310.203	16.31
310.419	61.85
310.635	58.15
310.851	38.52
311.067	40.56
311.283	82.21
311.499	43.71
311.715	65.36
311.931	57.77
312.147	65.74
312.363	41.11
312.579	68.33
312.795	78.88
313.011	55
313.227	44.26
313.443	92.21
313.659	83.51
313.875	41.48
314.091	64.62
314.307	49.44
314.523	62.22
314.738	60.74
314.954	65.74
315.17	43.52
315.386	48.89
315.602	51.11
315.817	33.15
316.033	66.29
316.249	44.82
316.465	79.99
316.68	26.3
316.896	64.25
317.112	55
317.327	49.07
317.543	89.8
317.758	47.59
317.974	41.48
318.19	72.96
318.405	46.67
318.621	68.7
318.836	54.63
319.052	54.81
319.267	56.66
319.483	51.67
319.698	28.9
319.914	65.36
320.129	62.22
320.344	80.18
320.56	48.52
320.775	75.18
320.99	68.51
321.206	74.25
321.421	58.89
321.636	81.29
321.852	70.92
322.067	35
322.282	19.27
322.498	55.55
322.713	42.41
322.928	102.39
323.143	59.44
323.358	73.51
323.574	73.14
323.789	85.91
324.004	45
324.219	69.62
324.434	78.14
324.649	69.81
324.864	37.97
325.079	46.48
325.294	69.44
325.509	44.82
325.724	49.07
325.939	72.03
326.154	40.37
326.369	98.69
326.584	74.07
326.799	58.7
327.014	84.99
327.229	46.48
327.444	44.82
327.659	52.04
327.873	66.85
328.088	73.7
328.303	55.18
328.518	80.55
328.733	40.74
328.947	55
329.162	74.81
329.377	55.92
329.591	84.25
329.806	68.33
330.021	58.52
330.235	100.54
330.45	57.03
330.665	50
330.879	75.18
331.094	117.76
331.309	74.99
331.523	82.03
331.738	115.53
331.952	112.02
332.167	129.05
332.381	93.69
332.596	133.68
332.81	115.9
333.025	133.86
333.239	152.19
333.453	121.83
333.668	137.56
333.882	142.75
334.097	98.5
334.311	87.02
334.525	92.02
334.74	88.51
334.954	64.07
335.168	99.06
335.382	95.54
335.597	71.29
335.811	82.58
336.025	69.07
336.239	109.8
336.453	75.92
336.668	77.77
336.882	50.74
337.096	78.51
337.31	73.14
337.524	53.52
337.738	57.22
337.952	86.65
338.166	84.43
338.38	80.73
338.594	72.4
338.808	44.82
339.022	96.1
339.236	47.78
339.45	60
339.664	109.24
339.878	72.96
340.092	51.48
340.306	31.67
340.52	71.29
340.734	72.77
340.948	68.51
341.161	57.77
341.375	65.74
341.589	28.71
341.803	67.4
342.017	54.26
342.23	65.74
342.444	52.04
342.658	53.15
342.871	54.26
343.085	52.78
343.299	38.71
343.512	51.11
343.726	49.81
343.94	82.4
344.153	64.81
344.367	66.48
344.58	30.38
344.794	55.92
345.008	42.04
345.221	50.18
345.435	44.26
345.648	53.89
345.862	26.49
346.075	48.89
346.288	77.58
346.502	71.84
346.715	51.85
346.929	54.81
347.142	43.52
347.355	71.1
347.569	46.67
347.782	41.11
347.995	49.63
348.209	77.95
348.422	28.52
348.635	50
348.848	65.55
349.062	57.77
349.275	80.55
349.488	57.4
349.701	70.73
349.914	47.59
350.128	46.48
350.341	40.37
350.554	30.75
350.767	56.11
350.98	29.27
351.193	50.18
351.406	53.33
351.619	58.33
351.832	82.77
352.045	79.25
352.258	83.69
352.471	109.8
352.684	105.54
352.897	99.06
353.11	101.46
353.323	114.05
353.536	67.59
353.748	110.72
353.961	74.62
354.174	95.54
354.387	108.5
354.6	62.59
354.813	73.88
355.025	94.43
355.238	69.44
355.451	47.41
355.664	51.11
355.876	73.88
356.089	68.7
356.302	87.58
356.514	21.12
356.727	49.26
356.94	54.63
357.152	63.33
357.365	67.03
357.577	77.58
357.79	60.18
358.002	50
358.215	40.37
358.427	54.07
358.64	55.74
358.852	50.18
359.065	30.38
359.277	44.26
359.49	54.26
359.702	72.96
359.915	61.29
360.127	67.59
360.339	55.18
360.552	74.81
360.764	70.18
360.976	103.5
361.189	69.07
361.401	88.69
361.613	111.83
361.825	45.93
362.038	69.62
362.25	60
362.462	69.44
362.674	51.48
362.886	56.85
363.099	83.88
363.311	62.4
363.523	77.58
363.735	60
363.947	59.26
364.159	97.02
364.371	68.14
364.583	22.97
364.795	43.71
365.007	79.62
365.219	36.49
365.431	30.38
365.643	68.7
365.855	39.82
366.067	53.7
366.279	31.3
366.491	53.89
366.703	41.67
366.914	43.33
367.126	43.15
367.338	82.58
367.55	57.96
367.762	70.36
367.974	11.68
368.185	27.04
368.397	56.48
368.609	54.26
368.82	42.41
369.032	53.33
369.244	33.34
369.456	64.81
369.667	45.93
369.879	67.96
370.09	27.78
370.302	45.74
370.514	60.37
370.725	72.96
370.937	33.71
371.148	25.56
371.36	39.82
371.571	32.41
371.783	32.6
371.994	44.26
372.206	52.78
372.417	76.1
372.629	32.78
372.84	15.38
373.051	35.74
373.263	72.58
373.474	49.81
373.685	33.89
373.897	53.89
374.108	70.92
374.319	55.18
374.531	44.63
374.742	65.18
374.953	60.92
375.164	21.68
375.375	72.58
375.587	29.45
375.798	58.15
376.009	55
376.22	44.63
376.431	58.89
376.642	40
376.853	32.6
377.065	66.11
377.276	64.07
377.487	52.59
377.698	31.86
377.909	55
378.12	57.77
378.331	61.48
378.542	23.53
378.753	44.45
378.964	45.37
379.174	32.23
379.385	46.11
379.596	37.97
379.807	67.03
380.018	50
380.229	95.91
380.44	103.13
380.65	52.41
380.861	95.54
381.072	71.84
381.283	76.1
381.493	80.18
381.704	69.07
381.915	57.77
382.126	69.99
382.336	81.66
382.547	81.66
382.757	54.44
382.968	53.33
383.179	62.22
383.389	78.14
383.6	55
383.81	69.44
384.021	74.25
384.231	85.91
384.442	52.96
384.652	78.69
384.863	86.84
385.073	67.59
385.284	83.88
385.494	75.18
385.705	72.77
385.915	94.43
386.125	71.66
386.336	76.47
386.546	76.84
386.756	115.72
386.967	47.41
387.177	104.24
387.387	78.14
387.598	81.66
387.808	86.84
388.018	89.99
388.228	55.37
388.439	60.55
388.649	40.56
388.859	35.74
389.069	65.36
389.279	40.74
389.489	66.11
389.699	46.85
389.909	63.33
390.12	33.52
390.33	47.78
390.54	56.48
390.75	68.7
390.96	67.4
391.17	133.12
391.38	172.55
391.59	216.43
391.799	245.86
392.009	267.15
392.219	233.09
392.429	166.26
392.639	164.04
392.849	111.09
393.059	117.02
393.269	90.91
393.478	82.95
393.688	52.59
393.898	81.66
394.108	25.93
394.317	47.41
394.527	47.78
394.737	51.48
394.947	46.48
395.156	45
395.366	58.89
395.576	68.88
395.785	16.31
395.995	39.08
396.204	58.7
396.414	25.01
396.624	48.33
396.833	49.26
397.043	31.49
397.252	52.41
397.462	64.25
397.671	53.33
397.881	36.49
398.09	31.49
398.299	25.19
398.509	39.63
398.718	36.3
398.928	61.11
399.137	38.34
399.346	57.4
399.556	29.82
399.765	19.08
399.974	32.6
400.184	39.82
400.393	94.61
400.602	89.43
400.811	134.6
401.021	209.39
401.23	248.45
401.439	291.59
401.648	277.89
401.857	229.57
402.066	176.81
402.276	163.3
402.485	148.12
402.694	115.35
402.903	112.94
403.112	68.33
403.321	76.29
403.53	65.92
403.739	32.78
403.948	27.41
404.157	50.93
404.366	29.27
404.575	37.41
404.784	81.84
404.993	41.11
405.202	91.28
405.411	55.18
405.619	28.15
405.828	60.18
406.037	57.4
406.246	35.19
406.455	73.7
406.663	69.99
406.872	47.96
407.081	60
407.29	85.91
407.498	36.3
407.707	82.03
407.916	52.04
408.124	68.14
408.333	77.03
408.542	38.52
408.75	68.33
408.959	42.78
409.168	58.52
409.376	38.71
409.585	48.15
409.793	96.84
410.002	52.22
410.21	67.4
410.419	54.07
410.627	50.74
410.836	49.26
411.044	38.71
411.253	51.85
411.461	52.78
411.669	92.58
411.878	120.72
412.086	314.54
412.294	677.02
412.503	921.76
412.711	1166.68
412.919	1329.41
413.128	1278.31
413.336	1020.62
413.544	879.92
413.752	692.02
413.961	578.72
414.169	432.66
414.377	359.35
414.585	300.48
414.793	293.63
415.001	269.74
415.209	334.35
415.418	390.26
415.626	484.49
415.834	540.21
416.042	683.32
416.25	1004.69
416.458	1299.97
416.666	1505.09
416.874	1737.42
417.082	1754.83
417.29	1567.11
417.498	1281.46
417.706	994.51
417.913	775.51
418.121	642.4
418.329	495.97
418.537	309.73
418.745	201.8
418.953	153.48
419.161	108.68
419.368	98.69
419.576	32.97
419.784	62.03
419.992	51.11
420.199	73.33
420.407	8.16
420.615	70.55
420.822	46.67
421.03	65.92
421.238	49.81
421.445	59.63
421.653	76.84
421.861	129.42
422.068	154.23
422.276	322.32
422.483	382.86
422.691	498.37
422.898	581.5
423.106	601.68
423.313	666.47
423.521	719.79
423.728	786.06
423.936	775.51
424.143	725.52
424.35	724.23
424.558	582.98
424.765	476.9
424.973	353.42
425.18	282.7
425.387	251.42
425.594	184.4
425.802	201.43
426.009	129.97
426.216	181.25
426.424	279.93
426.631	344.54
426.838	385.45
427.045	406.37
427.252	441.91
427.459	386.93
427.667	344.35
427.874	294
428.081	292.33
428.288	245.49
428.495	193.1
428.702	184.22
428.909	142.56
429.116	97.02
429.323	106.09
429.53	139.79
429.737	246.97
429.944	345.09
430.151	459.68
430.358	540.4
430.565	596.12
430.772	501.52
430.979	536.51
431.185	496.71
431.392	466.72
431.599	398.59
431.806	349.53
432.013	264.01
432.219	214.58
432.426	160.52
432.633	150.89
432.84	94.43
433.046	103.87
433.253	61.11
433.46	93.69
433.666	57.96
433.873	50.37
434.08	77.21
434.286	81.47
434.493	73.88
434.7	56.29
434.906	58.33
435.113	38.15
435.319	54.07
435.526	27.97
435.732	60.18
435.939	47.41
436.145	24.27
436.352	43.89
436.558	11.31
436.765	46.67
436.971	40.19
437.177	47.59
437.384	14.64
437.59	15.94
437.796	49.07
438.003	43.71
438.209	57.03
438.415	25.19
438.622	62.4
438.828	55
439.034	49.81
439.24	55
439.447	55.74
439.653	51.3
439.859	59.63
440.065	67.4
440.271	28.34
440.477	48.15
440.683	24.82
440.89	3.35
441.096	52.41
441.302	71.29
441.508	69.99
441.714	38.52
441.92	3.9
442.126	16.49
442.332	32.23
442.538	36.86
442.744	27.41
442.95	22.79
443.156	34.26
443.361	71.66
443.567	2.42
443.773	54.81
443.979	36.67
444.185	34.82
444.391	16.86
444.596	36.12
444.802	35.56
445.008	65.18
445.214	18.9
445.42	60.18
445.625	23.53
445.831	76.1
446.037	67.4
446.242	49.81
446.448	24.08
446.654	45.74
446.859	38.89
447.065	48.52
447.27	82.4
447.476	134.23
447.682	166.26
447.887	241.98
448.093	248.08
448.298	251.6
448.504	224.94
448.709	200.14
448.915	203.47
449.12	187.55
449.325	163.67
449.531	149.41
449.736	103.5
449.942	78.69
450.147	74.25
450.352	79.8
450.558	32.78
450.763	91.1
450.968	77.95
451.174	30.93
451.379	87.95
451.584	78.51
451.789	28.15
451.995	65.36
452.2	32.23
452.405	22.97
452.61	23.9
452.815	65.74
453.02	38.52
453.226	65.74
453.431	63.7
453.636	14.46
453.841	39.45
454.046	44.45
454.251	31.49
454.456	26.12
454.661	32.23
454.866	65.92
455.071	55.18
455.276	51.67
455.481	52.59
455.686	55.92
455.891	51.67
456.095	104.98
456.3	77.58
456.505	78.88
456.71	108.5
456.915	92.95
457.12	75.55
457.324	67.96
457.529	59.63
457.734	60
457.939	32.41
458.144	55.18
458.348	40.37
458.553	41.48
458.758	29.27
458.962	49.63
459.167	37.78
459.372	77.03
459.576	99.43
459.781	61.29
459.985	77.77
460.19	86.65
460.394	55.92
460.599	90.91
460.803	50.18
461.008	67.22
461.212	31.67
461.417	76.47
461.621	25.56
461.826	45
462.03	21.86
462.235	66.66
462.439	31.12
462.643	84.8
462.848	56.29
463.052	27.23
463.256	55.18
463.461	47.78
463.665	30.01
463.869	44.45
464.074	17.97
464.278	34.26
464.482	50
464.686	30.56
464.89	32.41
465.095	81.29
465.299	36.12
465.503	47.96
465.707	25.19
465.911	48.52
466.115	46.11
466.319	36.3
466.523	63.14
466.727	99.61
466.931	103.87
467.135	107.39
467.339	112.57
467.543	117.94
467.747	102.95
467.951	81.1
468.155	53.15
468.359	88.51
468.563	67.59
468.767	47.22
468.971	61.85
469.175	53.7
469.379	46.67
469.582	83.14
469.786	26.67
469.99	30.38
470.194	49.44
470.397	67.59
470.601	46.3
470.805	62.96
471.009	26.12
471.212	54.26
471.416	21.68
471.62	35.74
471.823	35.56
472.027	80.36
472.23	7.05
472.434	68.14
472.638	42.96
472.841	32.6
473.045	39.82
473.248	44.08
473.452	56.66
473.655	45
473.859	39.82
474.062	56.48
474.266	56.29
474.469	30.38
474.672	35.19
474.876	46.11
475.079	20.75
475.283	52.78
475.486	30.01
475.689	24.27
475.893	22.05
476.096	59.63
476.299	22.42
476.502	25.38
476.706	27.23
476.909	45.19
477.112	49.26
477.315	60.74
477.519	48.7
477.722	57.77
477.925	41.85
478.128	47.78
478.331	33.89
478.534	48.7
478.737	69.44
478.94	36.86
479.143	-13.5
479.346	54.63
479.549	31.86
479.752	60.55
479.955	36.49
480.158	45.37
480.361	32.97
480.564	51.48
480.767	22.97
480.97	28.9
481.173	48.7
481.376	54.26
481.579	40.93
481.782	43.52
481.984	65.36
482.187	109.98
482.39	341.39
482.593	724.78
482.796	925.46
482.998	1154.28
483.201	1263.13
483.404	1165.94
483.606	883.44
483.809	767.92
484.012	630.37
484.214	523.18
484.417	465.42
484.62	380.08
484.822	284.92
485.025	233.83
485.227	198.29
485.43	121.09
485.632	97.58
485.835	103.13
486.037	52.41
486.24	34.82
486.442	106.65
486.645	69.81
486.847	40.93
487.05	65.92
487.252	44.63
487.455	58.7
487.657	36.3
487.859	48.7
488.062	62.77
488.264	34.63
488.466	23.53
488.668	56.29
488.871	39.63
489.073	27.78
489.275	57.59
489.477	31.3
489.68	28.52
489.882	44.63
490.084	31.49
490.286	49.63
490.488	36.86
490.69	53.52
490.893	21.3
491.095	38.15
491.297	27.97
491.499	60.37
491.701	58.15
491.903	49.63
492.105	25.56
492.307	37.41
492.509	54.07
492.711	40.56
492.913	33.71
493.115	51.67
493.317	42.04
493.518	39.82
493.72	22.79
493.922	46.48
494.124	36.67
494.326	64.07
494.528	16.49
494.73	39.26
494.931	64.81
495.133	14.27
495.335	31.67
495.537	39.45
495.738	50.74
495.94	58.33
496.142	14.46
496.343	52.41
496.545	7.05
496.747	33.71
496.948	24.45
497.15	45.74
497.351	11.86
497.553	16.12
497.755	55.92
497.956	53.15
498.158	58.15
498.359	41.11
498.561	58.7
498.762	37.97
498.964	28.15
499.165	72.96
499.366	38.89
499.568	11.49
499.769	43.52
499.971	27.6
500.172	16.49
500.373	28.52
500.575	41.3
500.776	60.18
500.977	40.93
501.178	43.71
501.38	40.19
501.581	52.78
501.782	33.71
501.983	65.36
502.185	43.15
502.386	34.26
502.587	52.04
502.788	61.48
502.989	28.15
503.19	84.62
503.391	60.37
503.593	39.82
503.794	47.22
503.995	40.37
504.196	83.51
504.397	36.12
504.598	32.78
504.799	42.78
505	54.44
505.201	53.33
505.402	24.64
505.602	47.22
505.803	25.19
506.004	16.68
506.205	45.93
506.406	34.08
506.607	35.56
506.808	66.48
507.008	18.16
507.209	40.56
507.41	64.62
507.611	30.38
507.812	21.49
508.012	13.53
508.213	32.97
508.414	27.78
508.614	22.97
508.815	54.07
509.016	50.55
509.216	50
509.417	55.37
509.617	38.71
509.818	39.26
510.019	52.41
510.219	34.82
510.42	25.01
510.62	28.71
510.821	52.59
511.021	56.29
511.222	66.48
511.422	59.63
511.623	63.88
511.823	84.06
512.023	58.89
512.224	69.44
512.424	79.99
512.624	99.98
512.825	85.91
513.025	110.91
513.225	98.5
513.426	104.61
513.626	88.51
513.826	120.53
514.026	102.58
514.227	71.84
514.427	77.4
514.627	52.78
514.827	62.77
515.027	86.65
515.228	122.2
515.428	136.08
515.628	136.27
515.828	124.79
516.028	134.97
516.228	137.93
516.428	113.31
516.628	61.85
516.828	85.91
517.028	68.51
517.228	60.18
517.428	45.74
517.628	61.85
517.828	59.44
518.028	77.21
518.228	49.07
518.428	57.59
518.627	57.4
518.827	64.99
519.027	82.03
519.227	83.88
519.427	50.37
519.626	37.97
519.826	75.92
520.026	56.66
520.226	54.07
520.425	79.99
520.625	21.68
520.825	31.49
521.024	81.29
521.224	22.05
521.424	44.45
521.623	22.42
521.823	50.55
522.023	63.7
522.222	60.74
522.422	49.63
522.621	67.96
522.821	77.77
523.02	40.93
523.22	70.36
523.419	53.33
523.619	49.44
523.818	33.89
524.017	47.78
524.217	56.48
524.416	58.89
524.616	100.17
524.815	43.71
525.014	18.71
525.214	60.74
525.413	32.78
525.612	52.59
525.812	34.08
526.011	42.96
526.21	30.38
526.409	42.96
526.608	65.36
526.808	48.33
527.007	30.56
527.206	65.92
527.405	20.19
527.604	63.88
527.803	45.19
528.003	30.01
528.202	53.89
528.401	81.1
528.6	16.68
528.799	36.12
528.998	26.86
529.197	35.74
529.396	13.16
529.595	65.36
529.794	35
529.993	49.81
530.192	55.18
530.39	55.37
530.589	28.52
530.788	63.33
530.987	45
531.186	46.11
531.385	19.08
531.583	45.74
531.782	41.11
531.981	25.19
532.18	42.59
532.379	17.97
532.577	35.56
532.776	28.52
532.975	42.96
533.173	48.15
533.372	34.63
533.571	42.41
533.769	27.04
533.968	93.32
534.166	25.93
534.365	17.05
534.564	32.04
534.762	33.34
534.961	5.75
535.159	68.14
535.358	25.19
535.556	32.78
535.755	39.82
535.953	75.92
536.151	66.48
536.35	15.75
536.548	45
536.747	27.97
536.945	29.64
537.143	40.37
537.342	10.57
537.54	38.52
537.738	48.33
537.937	50.55
538.135	32.23
538.333	54.26
538.531	59.81
538.73	47.04
538.928	62.03
539.126	42.59
539.324	66.48
539.522	73.88
539.72	51.85
539.919	32.23
540.117	28.71
540.315	71.84
540.513	71.47
540.711	69.99
540.909	42.41
541.107	63.33
541.305	62.4
541.503	83.88
541.701	78.14
541.899	63.33
542.097	130.53
542.295	98.87
542.493	85.54
542.691	74.44
542.888	89.99
543.086	56.29
543.284	47.04
543.482	109.42
543.68	79.8
543.878	65.92
544.075	43.33
544.273	41.67
544.471	38.89
544.669	65.55
544.866	56.66
545.064	44.63
545.262	46.48
545.459	43.33
545.657	55
545.855	75.92
546.052	82.58
546.25	160.52
546.447	165.15
546.645	135.9
546.842	164.78
547.04	130.53
547.238	102.95
547.435	140.34
547.633	129.23
547.83	103.13
548.027	74.62
548.225	105.17
548.422	43.15
548.62	61.11
548.817	65.55
549.014	88.51
549.212	76.1
549.409	85.36
549.606	52.41
549.804	74.44
550.001	52.96
550.198	54.26
550.396	21.12
550.593	42.96
550.79	42.22
550.987	39.63
551.184	37.6
551.382	55
551.579	4.83
551.776	14.09
551.973	36.86
552.17	87.21
552.367	149.41
552.564	180.7
552.761	173.66
552.958	186.81
553.155	186.99
553.353	174.96
553.55	127.57
553.746	165.33
553.943	144.23
554.14	154.23
554.337	151.63
554.534	149.23
554.731	97.76
554.928	101.09
555.125	114.61
555.322	96.28
555.519	42.04
555.715	69.81
555.912	32.97
556.109	73.14
556.306	71.47
556.503	53.89
556.699	69.81
556.896	117.94
557.093	152.74
557.289	186.99
557.486	178.85
557.683	243.09
557.879	180.7
558.076	167.18
558.273	136.64
558.469	139.23
558.666	119.24
558.862	143.12
559.059	99.06
559.255	105.35
559.452	88.69
559.648	74.44
559.845	62.4
560.041	55.55
560.238	95.54
560.434	60.74
560.631	28.34
560.827	45.74
561.023	52.59
561.22	35.37
561.416	55.92
561.612	125.72
561.809	89.43
562.005	108.87
562.201	113.68
562.398	111.65
562.594	88.32
562.79	66.66
562.986	94.24
563.182	84.25
563.379	60.92
563.575	63.51
563.771	35.93
563.967	70.55
564.163	10.38
564.359	43.15
564.555	45.93
564.751	49.44
564.947	35
565.144	49.81
565.34	70.73
565.536	67.4
565.732	36.86
565.928	75.73
566.123	40
566.319	61.11
566.515	64.25
566.711	34.82
566.907	47.96
567.103	46.3
567.299	8.16
567.495	26.3
567.691	-0.17
567.886	58.89
568.082	40.56
568.278	49.63
568.474	34.63
568.669	39.82
568.865	29.08
569.061	27.6
569.257	25.56
569.452	35.74
569.648	33.89
569.844	28.34
570.039	28.9
570.235	45.37
570.43	67.03
570.626	89.06
570.822	108.5
571.017	79.25
571.213	63.88
571.408	56.11
571.604	74.07
571.799	57.22
571.995	43.15
572.19	33.71
572.385	32.41
572.581	35.74
572.776	43.52
572.972	56.29
573.167	14.64
573.362	39.26
573.558	71.29
573.753	63.7
573.948	31.12
574.144	54.26
574.339	48.7
574.534	22.6
574.729	29.45
574.925	52.04
575.12	66.48
575.315	27.41
575.51	37.04
575.705	32.78
575.9	45.56
576.096	40
576.291	36.3
576.486	46.67
576.681	41.48
576.876	52.22
577.071	27.23
577.266	42.41
577.461	44.08
577.656	62.77
577.851	33.89
578.046	42.78
578.241	56.66
578.436	35.93
578.631	16.49
578.826	63.7
579.021	24.08
579.215	27.41
579.41	65.36
579.605	45
579.8	41.3
579.995	79.25
580.189	47.04
580.384	68.88
580.579	53.89
580.774	54.81
580.968	45.93
581.163	31.86
581.358	60.55
581.552	46.11
581.747	32.6
581.942	33.71
582.136	49.63
582.331	42.41
582.526	38.34
582.72	68.33
582.915	54.44
583.109	76.29
583.304	59.26
583.498	85.36
583.693	62.03
583.887	75.73
584.082	42.04
584.276	96.84
584.471	26.49
584.665	66.11
584.859	53.89
585.054	85.17
585.248	109.61
585.442	151.26
585.637	166.44
585.831	177.18
586.025	161.45
586.22	123.49
586.414	94.99
586.608	114.61
586.802	66.85
586.997	92.39
587.191	86.84
587.385	96.1
587.579	118.31
587.773	150.15
587.967	147.93
588.162	199.77
588.356	162.93
588.55	184.77
588.744	127.75
588.938	117.39
589.132	102.95
589.326	147.56
589.52	116.83
589.714	112.94
589.908	123.86
590.102	124.98
590.296	109.42
590.49	97.76
590.684	76.66
590.877	97.95
591.071	66.66
591.265	98.5
591.459	72.58
591.653	40
591.847	18.9
592.04	45.19
592.234	24.82
592.428	36.67
592.622	42.78
592.815	47.96
593.009	26.49
593.203	78.88
593.397	17.05
593.59	50.18
593.784	62.03
593.977	34.45
594.171	23.34
594.365	49.26
594.558	41.3
594.752	56.85
594.945	49.07
595.139	52.22
595.332	38.15
595.526	64.81
595.719	50.93
595.913	76.29
596.106	64.81
596.3	42.22
596.493	42.59
596.687	65.92
596.88	64.62
597.073	88.32
597.267	33.52
597.46	62.03
597.653	53.52
597.847	54.44
598.04	55
598.233	54.44
598.426	20.19
598.62	56.11
598.813	52.04
599.006	83.14
599.199	83.88
599.392	189.03
599.586	248.27
599.779	308.25
599.972	342.68
600.165	422.84
600.358	425.44
600.551	420.07
600.744	363.97
600.937	396.19
601.13	349.72
601.323	358.97
601.516	326.02
601.709	303.25
601.902	262.52
602.095	259.75
602.288	228.09
602.481	225.31
602.674	196.43
602.867	226.61
603.06	176.44
603.252	145.15
603.445	129.97
603.638	113.68
603.831	115.53
604.024	84.43
604.216	79.62
604.409	53.15
604.602	30.19
604.795	89.62
604.987	16.31
605.18	55.18
605.373	58.15
605.565	40.93
605.758	40.56
605.951	36.49
606.143	52.41
606.336	84.8
606.528	25.19
606.721	54.26
606.913	79.99
607.106	108.5
607.298	89.25
607.491	114.98
607.683	73.7
607.876	72.03
608.068	27.78
608.261	54.44
608.453	98.87
608.646	50.93
608.838	80.92
609.03	39.26
609.223	36.86
609.415	29.45
609.607	45.56
609.8	51.3
609.992	31.67
610.184	47.22
610.376	21.86
610.569	33.89
610.761	24.64
610.953	51.11
611.145	60.37
611.337	64.07
611.529	78.69
611.722	102.02
611.914	38.15
612.106	59.81
612.298	62.03
612.49	82.95
612.682	84.25
612.874	81.66
613.066	50.18
613.258	88.88
613.45	85.54
613.642	98.87
613.834	118.5
614.026	95.91
614.218	98.13
614.41	104.61
614.602	81.29
614.793	107.76
614.985	70.36
615.177	68.51
615.369	53.52
615.561	60.92
615.753	54.63
615.944	70.55
616.136	32.97
616.328	30.01
616.52	31.12
616.711	23.71
616.903	40
617.095	58.15
617.286	14.27
617.478	34.26
617.67	28.34
617.861	84.62
618.053	81.1
618.244	87.77
618.436	69.25
618.627	58.7
618.819	48.33
619.01	83.69
619.202	45.37
619.393	36.12
619.585	45
619.776	43.89
619.968	30.93
620.159	47.04
620.351	29.45
620.542	-9.43
620.733	31.67
620.925	4.09
621.116	16.31
621.307	32.23
621.499	43.15
621.69	59.44
621.881	44.26
622.072	30.38
622.264	4.64
622.455	16.49
622.646	23.53
622.837	33.52
623.028	48.33
623.22	58.89
623.411	62.96
623.602	27.41
623.793	17.97
623.984	20.01
624.175	22.97
624.366	35.37
624.557	20.01
624.748	4.46
624.939	30.56
625.13	39.08
625.321	26.49
625.512	17.23
625.703	9.83
625.894	33.52
626.085	19.08
626.276	33.89
626.467	25.56
626.658	59.26
626.848	60.18
627.039	67.4
627.23	74.81
627.421	87.58
627.612	74.25
627.802	117.57
627.993	84.25
628.184	102.21
628.375	71.1
628.565	71.1
628.756	42.59
628.947	27.78
629.137	71.1
629.328	36.86
629.519	8.35
629.709	33.34
629.9	5.2
630.09	26.3
630.281	28.52
630.471	10.38
630.662	8.35
630.852	12.42
631.043	22.97
631.233	27.78
631.424	50
631.614	29.27
631.805	37.97
631.995	28.71
632.185	12.97
632.376	53.15
632.566	18.34
632.756	28.71
632.947	29.27
633.137	8.53
633.327	54.44
633.518	49.07
633.708	62.4
633.898	72.96
634.088	44.26
634.279	39.08
634.469	49.63
634.659	60.74
634.849	83.51
635.039	91.28
635.229	139.97
635.42	99.43
635.61	94.24
635.8	48.52
635.99	74.99
636.18	55.37
636.37	35.19
636.56	88.51
636.75	56.29
636.94	52.78
637.13	19.45
637.32	59.81
637.51	31.67
637.7	76.84
637.89	108.68
638.079	226.61
638.269	248.82
638.459	325.84
638.649	308.07
638.839	348.24
639.029	266.6
639.218	241.23
639.408	202.91
639.598	194.77
639.788	159.59
639.977	145.15
640.167	112.57
640.357	98.13
640.546	34.45
640.736	42.78
640.926	49.44
641.115	38.34
641.305	-2.39
641.495	60.55
641.684	26.3
641.874	39.63
642.063	18.53
642.253	30.56
642.442	33.15
642.632	37.97
642.821	16.31
643.011	3.16
643.2	18.16
643.39	30.56
643.579	13.53
643.768	35.56
643.958	46.48
644.147	49.26
644.336	5.94
644.526	54.07
644.715	23.71
644.904	34.63
645.094	46.11
645.283	17.6
645.472	21.49
645.661	31.49
645.851	28.34
646.04	27.6
646.229	9.83
646.418	22.79
646.607	37.6
646.796	41.3
646.986	20.19
647.175	41.48
647.364	42.04
647.553	50.18
647.742	13.34
647.931	23.71
648.12	19.27
648.309	15.01
648.498	37.78
648.687	44.63
648.876	24.45
649.065	15.01
649.254	33.89
649.443	17.6
649.632	41.67
649.82	48.7
650.009	42.59
650.198	11.31
650.387	32.04
650.576	71.47
650.765	75.55
650.953	74.07
651.142	40.37
651.331	47.59
651.52	57.77
651.708	77.4
651.897	56.66
652.086	119.42
652.274	497.08
652.463	1545.26
652.652	2639.54
652.84	3663.11
653.029	4444.71
653.217	4991.94
653.406	4903.26
653.594	4239.59
653.783	3781.77
653.972	3215.66
654.16	2798.57
654.349	2469.6
654.537	2097.12
654.725	1792.78
654.914	1364.95
655.102	993.59
655.291	663.14
655.479	416.73
655.667	246.97
655.856	195.51
656.044	97.58
656.232	104.24
656.421	79.06
656.609	56.48
656.797	94.99
656.986	91.47
657.174	88.51
657.362	78.69
657.55	84.62
657.738	74.44
657.927	50.93
658.115	69.62
658.303	42.22
658.491	66.29
658.679	24.45
658.867	50.18
659.055	7.98
659.243	48.7
659.431	29.27
659.619	23.34
659.807	44.63
659.995	50
660.183	34.82
660.371	9.09
660.559	34.26
660.747	16.68
660.935	44.82
661.123	13.9
661.311	10.57
661.499	4.09
661.687	17.23
661.875	30.38
662.062	20.75
662.25	57.96
662.438	45.19
662.626	64.62
662.813	47.04
663.001	82.4
663.189	44.63
663.377	75.36
663.564	43.15
663.752	157.93
663.94	212.17
664.127	349.16
664.315	429.14
664.502	505.41
664.69	569.65
664.878	512.44
665.065	460.05
665.253	388.04
665.44	335.28
665.628	319.54
665.815	255.86
666.003	232.72
666.19	187.36
666.378	166.63
666.565	135.16
666.752	134.6
666.94	83.88
667.127	64.25
667.315	48.15
667.502	33.15
667.689	11.49
667.877	18.16
668.064	67.22
668.251	30.56
668.438	18.71
668.626	12.23
668.813	32.41
669	24.82
669.187	10.2
669.374	26.49
669.562	23.9
669.749	52.78
669.936	20.38
670.123	16.68
670.31	42.59
670.497	41.11
670.684	26.49
670.871	36.12
671.058	12.79
671.245	76.47
671.432	179.4
671.619	308.07
671.806	454.13
671.993	580.2
672.18	606.86
672.367	601.86
672.554	529.66
672.741	467.09
672.928	443.58
673.115	400.81
673.302	336.76
673.488	302.88
673.675	256.04
673.862	186.99
674.049	174.59
674.235	140.9
674.422	88.32
674.609	79.25
674.796	58.33
674.982	40.93
675.169	17.97
675.356	35.56
675.542	30.01
675.729	36.86
675.916	4.46
676.102	51.67
676.289	34.82
676.475	17.79
676.662	-6.46
676.848	6.87
677.035	16.49
677.221	25.93
677.408	33.71
677.594	24.45
677.781	38.15
677.967	34.63
678.154	37.23
678.34	42.96
678.526	14.64
678.713	32.78
678.899	8.16
679.085	58.89
679.272	-2.02
679.458	39.08
679.644	29.82
679.831	-6.65
680.017	34.45
680.203	35.74
680.389	18.71
680.576	38.15
680.762	6.68
680.948	36.49
681.134	4.64
681.32	28.71
681.506	30.56
681.692	45.74
681.879	37.04
682.065	27.23
682.251	45
682.437	45.93
682.623	49.63
682.809	0.02
682.995	36.3
683.181	147.19
683.367	238.46
683.553	309.73
683.739	409.33
683.924	504.85
684.11	555.21
684.296	529.48
684.482	487.08
684.668	415.81
684.854	346.39
685.04	346.2
685.225	283.81
685.411	290.48
685.597	253.27
685.783	230.68
685.968	157.56
686.154	133.68
686.34	83.32
686.526	82.58
686.711	72.77
686.897	124.98
687.083	51.11
687.268	56.11
687.454	38.52
687.639	51.67
687.825	27.04
688.01	72.4
688.196	20.01
688.382	70.92
688.567	57.03
688.752	62.03
688.938	25.75
689.123	80.55
689.309	52.41
689.494	23.71
689.68	65.55
689.865	123.12
690.05	152.56
690.236	188.84
690.421	232.16
690.606	230.5
690.792	273.82
690.977	259.38
691.162	242.16
691.348	242.16
691.533	232.35
691.718	203.1
691.903	217.54
692.089	250.86
692.274	403.03
692.459	1351.99
692.644	4281.43
692.829	8784.8
693.014	12422.72
693.199	16106.17
693.384	18491.89
693.569	19523.23
693.755	17701.96
693.94	15344
694.125	13301.32
694.31	11210.14
694.495	9443.85
694.68	7803.63
694.864	6270.42
695.049	4807.92
695.234	3609.79
695.419	2746.36
695.604	1956.8
695.789	1400.86
695.974	997.29
696.159	633.15
696.344	438.02
696.528	313.62
696.713	218.46
696.898	171.81
697.083	162
697.267	139.97
697.452	111.65
697.637	92.02
697.822	61.85
698.006	92.21
698.191	90.54
698.375	80.18
698.56	106.09
698.745	108.31
698.929	88.69
699.114	139.97
699.298	235.87
699.483	346.94
699.668	354.9
699.852	436.54
700.037	440.99
700.221	411
700.405	384.15
700.59	362.31
700.774	277.33
700.959	236.98
701.143	228.65
701.328	227.35
701.512	166.81
701.696	149.6
701.881	168.48
702.065	134.6
702.249	149.6
702.433	333.06
702.618	1120.21
702.802	3821.39
702.986	7861.95
703.17	11692.39
703.355	14849.9
703.539	17365.77
703.723	18283.62
703.907	16953.49
704.091	14593.5
704.275	12519.17
704.46	10381.33
704.644	8651.88
704.828	6935.95
705.012	5468.82
705.196	4213.86
705.38	3248.61
705.564	2630.84
705.748	1977.72
705.932	1483.62
706.116	1061.16
706.3	713.86
706.484	491.9
706.668	355.46
706.851	261.78
707.035	231.98
707.219	232.9
707.403	170.52
707.587	174.96
707.771	162.93
707.954	147.19
708.138	135.71
708.322	108.87
708.506	95.36
708.689	101.65
708.873	83.88
709.057	95.91
709.241	111.65
709.424	100.35
709.608	111.83
709.792	89.8
709.975	99.98
710.159	80.18
710.342	70.92
710.526	166.07
710.709	331.39
710.893	787.17
711.077	1223.33
711.26	1628.38
711.443	1867.01
711.627	2137.85
711.81	2047.88
711.994	1742.05
712.177	1492.13
712.361	1286.64
712.544	1064.12
712.727	888.25
712.911	744.78
713.094	558.17
713.277	456.54
713.461	400.81
713.644	292.51
713.827	292.51
714.011	182.55
714.194	149.04
714.377	123.68
714.56	117.2
714.743	60.18
714.927	67.59
715.11	50.55
715.293	48.15
715.476	36.86
715.659	52.59
715.842	31.49
716.025	8.35
716.208	37.78
716.391	47.41
716.575	47.04
716.758	86.65
716.941	76.1
717.124	117.2
717.306	129.6
717.489	128.86
717.672	110.91
717.855	139.6
718.038	106.46
718.221	113.13
718.404	62.59
718.587	53.52
718.77	57.03
718.952	70.55
719.135	63.33
719.318	38.34
719.501	53.7
719.684	83.14
719.866	62.59
720.049	76.66
720.232	40.74
720.414	55.18
720.597	61.66
720.78	50
720.962	40.56
721.145	49.81
721.328	32.6
721.51	50.18
721.693	24.08
721.875	47.78
722.058	20.93
722.24	47.04
722.423	101.46
722.605	63.7
722.788	37.6
722.97	128.31
723.153	271.23
723.335	873.63
723.518	1878.49
723.7	2802.27
723.882	3622.75
724.065	4203.86
724.247	4396.57
724.429	4197.56
724.612	3431.33
724.794	2895.76
724.976	2320.94
725.159	1861.27
725.341	1482.13
725.523	1183.71
725.705	949.9
725.888	860.48
726.07	687.57
726.252	605.75
726.434	490.23
726.616	397.85
726.798	279.37
726.98	224.57
727.162	141.64
727.345	168.11
727.527	115.16
727.709	165.52
727.891	155.52
728.073	201.62
728.255	160.7
728.437	201.62
728.619	141.64
728.801	138.67
728.982	113.13
729.164	99.43
729.346	108.5
729.528	124.98
729.71	77.21
729.892	70.73
730.074	73.33
730.255	95.36
730.437	74.81
730.619	51.3
730.801	120.16
730.983	82.4
731.164	92.21
731.346	161.26
731.528	139.05
731.709	190.14
731.891	218.83
732.073	257.9
732.254	270.3
732.436	239.01
732.617	216.61
732.799	231.61
732.981	206.62
733.162	231.79
733.344	306.77
733.525	458.76
733.707	519.11
733.888	657.58
734.07	893.99
734.251	2032.33
734.433	5499
734.614	11518.37
734.795	16596.2
734.977	21351.16
735.158	24863
735.34	26350.86
735.521	23439.2
735.702	19044.49
735.883	15221.27
736.065	11929.54
736.246	9414.6
736.427	7553.71
736.609	6228.58
736.79	5313.69
736.971	4626.5
737.152	4088.34
737.333	3559.25
737.514	3102.73
737.696	2608.07
737.877	2063.99
738.058	1476.4
738.239	1112.99
738.42	781.99
738.601	580.2
738.782	394.33
738.963	325.28
739.144	274.74
739.325	243.27
739.506	227.91
739.687	231.79
739.868	263.45
740.049	270.67
740.23	249.57
740.411	288.44
740.592	273.82
740.773	214.02
740.953	188.84
741.134	196.43
741.315	135.71
741.496	180.14
741.677	149.6
741.857	139.05
742.038	124.24
742.219	125.9
742.4	125.72
742.58	124.98
742.761	115.53
742.942	135.71
743.122	127.75
743.303	140.34
743.484	139.97
743.664	168.11
743.845	162.37
744.025	183.11
744.206	167.37
744.386	160.15
744.567	168.67
744.748	174.4
744.928	212.54
745.108	238.09
745.289	242.72
745.469	244.94
745.65	270.85
745.83	317.69
746.011	551.69
746.191	1886.45
746.371	6116.95
746.552	14280.64
746.732	21558.32
746.912	28197.31
747.093	32335.06
747.273	35415.37
747.453	35642.89
747.633	35402.04
747.814	35317.81
747.994	35638.08
748.174	35850.79
748.354	34842.22
748.534	31101.94
748.715	25432.27
748.895	20883.16
749.075	17429.82
749.255	14654.41
749.435	12730.95
749.615	11079.63
749.795	9608.98
749.975	8100.21
750.155	6926.51
750.335	5771.14
750.515	4892.16
750.695	4041.69
750.875	3367.09
751.055	2649.72
751.235	2000.12
751.415	1432.71
751.595	1049.5
751.775	760.7
751.954	545.4
752.134	438.02
752.314	364.53
752.494	306.4
752.674	268.08
752.854	260.49
753.033	237.16
753.213	183.11
753.393	177.37
753.572	188.1
753.752	179.22
753.932	159.96
754.111	163.67
754.291	151.63
754.471	159.78
754.65	142.01
754.83	141.45
755.01	140.9
755.189	136.64
755.369	117.94
755.548	157.37
755.728	119.79
755.907	144.23
756.087	131.64
756.266	142.56
756.446	120.9
756.625	135.16
756.804	185.14
756.984	138.49
757.163	134.23
757.343	140.9
757.522	114.24
757.701	142.75
757.881	212.54
758.06	201.06
758.239	227.91
758.418	261.97
758.598	298.99
758.777	337.87
758.956	476.16
759.135	1093.18
759.315	3876
759.494	13812.46
759.673	29619.63
759.852	41877.38
760.031	50396.33
760.21	54955.06
760.389	55669.83
760.568	50964.3
760.748	39175.65
760.927	31292.8
761.106	25286.94
761.285	21246.01
761.464	18229.56
761.643	16054.89
761.822	14053.12
762	12799.08
762.179	11264.2
762.358	10312.46
762.537	9225.4
762.716	8383.63
762.895	7426.72
763.074	6364.65
763.253	5066.55
763.431	3837.49
763.61	2809.86
763.789	1965.87
763.968	1352.18
764.147	954.53
764.325	662.4
764.504	523.18
764.683	394.52
764.861	387.48
765.04	324.73
765.219	264.93
765.397	252.16
765.576	260.86
765.755	234.39
765.933	221.43
766.112	206.99
766.29	194.03
766.469	183.29
766.647	177.74
766.826	160.33
767.004	176.81
767.183	192.55
767.361	195.51
767.54	217.35
767.718	243.46
767.897	276.41
768.075	798.28
768.253	2905.94
768.432	8289.59
768.61	14150.5
768.788	18113.68
768.967	21123.64
769.145	22837.54
769.323	22000.58
769.501	17810.07
769.68	13688.79
769.858	11381.57
770.036	9389.05
770.214	8257.75
770.393	7141.44
770.571	6375.02
770.749	5681.9
770.927	5084.87
771.105	4541.53
771.283	4161.65
771.461	3775.29
771.639	3460.21
771.817	3044.04
771.995	2683.6
772.173	2274.84
772.351	1768.15
772.529	1324.59
772.707	1024.5
772.885	665.73
773.063	495.23
773.241	381
773.419	277.52
773.597	244.94
773.775	159.41
773.953	148.86
774.131	145.71
774.308	155.89
774.486	156.08
774.664	133.31
774.842	105.35
775.02	108.13
775.197	124.42
775.375	80.73
775.553	88.32
775.73	62.77
775.908	116.09
776.086	79.43
776.263	94.43
776.441	81.66
776.619	52.22
776.796	56.11
776.974	94.06
777.151	65.18
777.329	60.92
777.506	68.88
777.684	65.74
777.861	72.03
778.039	74.44
778.216	75.73
778.394	77.95
778.571	52.78
778.749	26.12
778.926	64.62
779.103	60.74
779.281	46.11
779.458	101.28
779.635	35.37
779.813	77.58
779.99	41.11
780.167	60.92
780.345	63.7
780.522	80.55
780.699	17.97
780.876	46.11
781.054	42.22
781.231	34.45
781.408	39.26
781.585	69.44
781.762	42.22
781.939	46.67
782.116	51.48
782.294	71.47
782.471	45.37
782.648	34.82
782.825	25.56
783.002	52.41
783.179	42.96
783.356	51.48
783.533	42.41
783.71	41.48
783.887	65.36
784.064	60
784.24	48.7
784.417	56.11
784.594	57.03
784.771	60.18
784.948	72.77
785.125	79.06
785.302	68.7
785.478	125.35
785.655	86.28
785.832	93.32
786.009	87.58
786.185	92.58
786.362	92.76
786.539	53.7
786.715	108.87
786.892	47.04
787.069	92.21
787.245	80.73
787.422	38.52
787.599	53.33
787.775	76.84
787.952	58.7
788.128	67.22
788.305	79.99
788.481	72.21
788.658	57.03
788.834	52.22
789.011	77.95
789.187	56.66
789.364	50.74
789.54	110.17
789.717	105.35
789.893	83.69
790.069	124.79
790.246	173.85
790.422	494.86
790.598	1530.27
790.775	3723.83
790.951	6223.58
791.127	8175.55
791.304	9558.82
791.48	10612.18
791.656	10452.05
791.832	9311.67
792.008	7543.72
792.185	6499.24
792.361	5842.78
792.537	5163
792.713	4728.14
792.889	4262.17
793.065	3874.33
793.241	3541.11
793.417	3212.32
793.593	2985.54
793.769	2749.14
793.945	2549.02
794.121	2327.05
794.297	2213.2
794.473	2007.89
794.649	1862.75
794.825	1580.81
795.001	1327
795.177	1011.36
795.353	800.87
795.529	595.2
795.705	453.76
795.881	353.42
796.056	362.49
796.232	471.72
796.408	1060.79
796.584	2075.09
796.76	3428.18
796.935	4453.22
797.111	5570.83
797.287	7102.75
797.462	9292.79
797.638	11172.74
797.814	12262.95
797.989	12969.39
798.165	13578.46
798.341	13177.47
798.516	11748.12
798.692	9990.53
798.867	8896.8
799.043	8089.1
799.218	7366.74
799.394	6629.57
799.569	6176.93
799.745	5598.41
799.92	5260.74
800.096	4763.49
800.271	4420.64
800.447	4073.71
800.622	3765.11
800.797	3328.4
800.973	3024.79
801.148	2698.23
801.323	2438.5
801.499	2057.51
801.674	1725.76
801.849	1379.57
802.025	1073.19
802.2	774.58
802.375	608.9
802.55	453.76
802.725	321.21
802.901	243.46
803.076	220.87
803.251	189.03
803.426	141.64
803.601	161.08
803.776	125.53
803.951	114.98
804.127	130.71
804.302	110.35
804.477	113.87
804.652	152.19
804.827	109.61
805.002	89.06
805.177	154.23
805.352	199.4
805.526	191.99
805.701	257.34
805.876	425.25
806.051	893.06
806.226	1959.57
806.401	3682.54
806.576	5622.85
806.751	7238.44
806.925	8620.97
807.1	9829.1
807.275	11235.32
807.45	13294.84
807.625	16889.99
807.799	20513.84
807.974	23442.9
808.149	25068.68
808.323	26215.72
808.498	24889.48
808.673	22536.15
808.847	19866.26
809.022	17820.07
809.197	16497.16
809.371	15226.26
809.546	14044.98
809.72	13098.8
809.895	12159.28
810.069	11264.75
810.244	10370.96
810.418	9528.64
810.593	8747.78
810.767	7908.23
810.942	7154.58
811.116	6497.2
811.29	5862.4
811.465	5353.68
811.639	4779.6
811.814	4161.09
811.988	3378.01
812.162	2632.14
812.337	1949.02
812.511	1458.44
812.685	982.29
812.859	723.3
813.034	510.78
813.208	414.33
813.382	289.55
813.556	279.37
813.73	220.5
813.905	222.91
814.079	164.96
814.253	172.18
814.427	162.56
814.601	108.31
814.775	135.9
814.949	105.35
815.123	105.35
815.297	75.92
815.471	91.47
815.645	87.39
815.819	89.62
815.993	78.88
816.167	71.66
816.341	95.73
816.515	77.4
816.689	63.14
816.863	55.37
817.037	89.62
817.21	67.96
817.384	64.44
817.558	43.89
817.732	115.16
817.906	68.14
818.079	51.3
818.253	63.33
818.427	46.3
818.601	54.44
818.774	76.84
818.948	26.67
819.122	69.25
819.295	47.59
819.469	48.7
819.643	30.38
819.816	69.25
819.99	45.37
820.163	42.78
820.337	32.97
820.511	44.45
820.684	46.67
820.858	71.1
821.031	36.3
821.205	60.55
821.378	79.06
821.551	82.03
821.725	85.54
821.898	115.53
822.072	217.72
822.245	410.25
822.418	732.56
822.592	1306.08
822.765	1991.97
822.938	2657.32
823.112	3078.66
823.285	3400.6
823.458	3525.93
823.631	3434.66
823.805	3116.06
823.978	2838.92
824.151	2561.79
824.324	2501.62
824.497	2232.08
824.671	2182.28
824.844	2037.51
825.017	1865.53
825.19	1769.64
825.363	1669.67
825.536	1520.09
825.709	1484.91
825.882	1379.02
826.055	1241.1
826.228	1154.65
826.401	1111.33
826.574	1012.28
826.747	993.22
826.92	873.26
827.093	721.82
827.266	585.38
827.439	464.87
827.612	317.14
827.785	245.68
827.957	173.48
828.13	144.97
828.303	120.35
828.476	93.32
828.649	61.29
828.821	106.65
828.994	74.62
829.167	72.03
829.34	77.77
829.512	15.2
829.685	58.89
829.858	53.52
830.03	53.7
830.203	71.1
830.375	54.07
830.548	49.63
830.721	10.01
830.893	33.89
831.066	53.15
831.238	33.34
831.411	69.25
831.583	51.67
831.756	49.26
831.928	38.15
832.101	23.53
832.273	38.34
832.446	12.6
832.618	49.63
832.79	41.3
832.963	23.71
833.135	21.12
833.307	41.3
833.48	32.78
833.652	35
833.824	47.41
833.997	22.23
834.169	21.3
834.341	53.33
834.513	10.01
834.686	27.6
834.858	25.38
835.03	49.63
835.202	35.37
835.374	38.15
835.546	33.71
835.718	52.59
835.891	63.7
836.063	67.96
836.235	86.28
836.407	124.24
836.579	233.27
836.751	386.19
836.923	737.19
837.095	1285.9
837.267	2036.59
837.439	2900.02
837.611	3654.96
837.782	4242.18
837.954	4602.25
838.126	4848.1
838.298	4835.14
838.47	4752.57
838.642	4774.23
838.814	5379.04
838.985	6058.82
839.157	6916.51
839.329	7567.23
839.501	8148.34
839.672	8252.2
839.844	8239.79
840.016	7852.32
840.188	7450.41
840.359	6856.9
840.531	6520.9
840.702	6148.98
840.874	5873.33
841.046	5525.47
841.217	5213.72
841.389	4850.5
841.56	4538.94
841.732	4125.18
841.903	3756.04
842.075	3285.08
842.246	3016.83
842.418	2690.45
842.589	2455.16
842.761	2237.82
842.932	2085.28
843.104	1876.82
843.275	1693.36
843.446	1367.17
843.618	1121.32
843.789	882.51
843.96	592.97
844.132	435.8
844.303	338.06
844.474	199.95
844.646	198.66
844.817	140.9
844.988	131.83
845.159	161.26
845.331	110.17
845.502	63.33
845.673	98.13
845.844	49.81
846.015	78.32
846.186	52.59
846.357	63.14
846.528	40.74
846.7	50.55
846.871	55.18
847.042	64.25
847.213	43.52
847.384	117.2
847.555	54.44
847.726	88.51
847.897	81.66
848.067	81.29
848.238	150.89
848.409	240.49
848.58	405.63
848.751	593.9
848.922	867.15
849.093	1245.91
849.264	1448.07
849.434	1708.17
849.605	1740.94
849.776	1811.84
849.947	1772.41
850.117	1732.8
850.288	1619.68
850.459	1486.76
850.63	1477.88
850.8	1447.15
850.971	1375.5
851.142	1270.91
851.312	1172.05
851.483	1196.11
851.653	1094.48
851.824	1029.13
851.995	917.69
852.165	924.91
852.336	811.98
852.506	850.67
852.677	786.62
852.847	731.82
853.018	646.48
853.188	587.05
853.358	499.49
853.529	397.85
853.699	304.18
853.87	234.39
854.04	125.53
854.21	129.79
854.381	80.92
854.551	99.98
854.721	50.93
854.892	42.22
855.062	30.75
855.232	33.89
855.402	24.27
855.573	25.19
855.743	35.56
855.913	19.27
856.083	27.97
856.253	36.3
856.423	14.64
856.594	22.05
856.764	46.48
856.934	41.11
857.104	-0.54
857.274	38.71
857.444	20.01
857.614	7.42
857.784	17.23
857.954	27.78
858.124	31.3
858.294	28.9
858.464	51.11
858.634	21.68
858.804	13.71
858.974	5.94
859.143	-7.94
859.313	14.09
859.483	43.52
859.653	23.9
859.823	29.45
859.993	35.56
860.162	15.38
860.332	38.15
860.502	37.97
860.672	33.15
860.841	28.9
861.011	39.26
861.181	9.64
861.35	85.73
861.52	29.64
861.69	34.45
861.859	32.41
862.029	6.87
862.198	22.6
862.368	16.68
862.538	28.15
862.707	47.41
862.877	36.3
863.046	37.78
863.216	22.42
863.385	57.77
863.555	53.89
863.724	92.76
863.893	80.36
864.063	184.59
864.232	243.83
864.402	219.57
864.571	249.94
864.74	317.51
864.91	293.07
865.079	331.21
865.248	306.95
865.418	310.66
865.587	274.74
865.756	277.89
865.925	265.12
866.094	306.03
866.264	267.52
866.433	253.27
866.602	248.82
866.771	218.83
866.94	193.1
867.109	182.55
867.278	187.18
867.448	179.22
867.617	136.27
867.786	191.81
867.955	122.57
868.124	124.79
868.293	107.94
868.462	94.8
868.631	73.14
868.8	98.32
868.969	36.49
869.137	50.55
869.306	38.71
869.475	40.93
869.644	20.75
869.813	20.19
869.982	31.86
870.151	11.86
870.319	23.9
870.488	29.45
870.657	32.04
870.826	10.38
870.995	4.64
871.163	14.27
871.332	9.27
871.501	53.52
871.669	-2.95
871.838	58.52
872.007	32.78
872.175	25.93
872.344	-5.72
872.512	10.75
872.681	3.53
872.85	32.97
873.018	28.52
873.187	15.94
873.355	47.59
873.524	18.9
873.692	6.49
873.861	48.52
874.029	22.6
874.197	37.97
874.366	36.86
874.534	46.48
874.703	10.01
874.871	36.67
875.039	18.16
875.208	10.38
875.376	41.67
875.544	38.52
875.713	7.05
875.881	11.12
876.049	12.79
876.217	23.9
876.386	37.23
876.554	42.04
876.722	16.68
876.89	23.16
877.058	19.08
877.226	36.67
877.395	-16.09
877.563	16.12
877.731	-3.69
877.899	10.01
878.067	-6.09
878.235	10.94
878.403	-6.09
878.571	26.86
878.739	-1.65
878.907	58.52
879.075	12.42
879.243	37.78
879.411	-4.43
879.579	6.49
879.747	25.01
879.914	5.38
880.082	-14.61
880.25	8.9
880.418	-13.13
880.586	12.6
880.754	31.86
880.921	33.71
881.089	11.86
881.257	39.63
881.425	24.45
881.592	15.01
881.76	10.01
881.928	57.22
882.095	26.49
882.263	32.97
882.431	6.31
882.598	56.48
882.766	16.31
882.933	31.3
883.101	-12.2
883.269	8.53
883.436	20.93
883.604	27.23
883.771	37.04
883.939	2.42
884.106	-15.54
884.273	36.12
884.441	1.5
884.608	10.57
884.776	38.15
884.943	58.89
885.11	-4.43
885.278	26.49
885.445	-24.05
885.613	36.12
885.78	26.67
885.947	23.34
886.114	41.67
886.282	42.96
886.449	15.57
886.616	15.01
886.783	-1.28
886.951	12.97
887.118	4.46
887.285	47.59
887.452	0.39
887.619	21.12
887.786	-20.9
887.953	6.49
888.12	9.83
888.287	27.97
888.455	37.23
888.622	34.08
888.789	13.16
888.956	26.49
889.123	18.16
889.29	-6.83
889.456	10.94
889.623	3.72
889.79	4.83
889.957	18.9
890.124	2.98
890.291	30.01
890.458	8.72
890.625	40.37
890.791	15.75
890.958	15.94
891.125	33.34
891.292	-1.47
891.459	8.53
891.625	33.89
891.792	18.71
891.959	-14.42
892.125	-17.02
892.292	15.38
892.459	18.16
892.625	32.97
892.792	21.86
892.959	18.16
893.125	58.89
893.292	1.87
893.458	37.6
893.625	22.42
893.791	5.94
893.958	12.23
894.124	19.82
894.291	-10.72
894.457	24.64
894.624	26.86
894.79	1.5
894.957	45.74
895.123	10.75
895.289	40.19
895.456	37.6
895.622	39.26
895.788	28.71
895.955	30.38
896.121	29.64
896.287	85.91
896.454	15.75
896.62	22.97
896.786	7.05
896.952	11.12
897.119	15.38
897.285	48.7
897.451	10.38
897.617	25.38
897.783	30.01
897.949	5.2
898.115	3.16
898.281	31.12
898.448	51.11
898.614	21.86
898.78	4.64
898.946	26.49
899.112	45.93
899.278	-8.13
899.444	7.79
899.61	59.81
899.775	33.34
899.941	29.82
900.107	12.79
900.273	18.16
900.439	27.04
900.605	34.26
900.771	30.56
900.937	26.86
901.102	32.6
901.268	12.97
901.434	22.42
901.6	31.86
901.766	26.3
901.931	61.11
902.097	8.9
902.263	22.05
902.428	32.41
902.594	16.12
902.76	-14.79
902.925	20.93
903.091	22.42
903.256	36.12
903.422	41.85
903.588	-0.54
903.753	1.5
903.919	7.79
904.084	36.86
904.25	14.83
904.415	35.74
904.581	33.52
904.746	38.71
904.912	18.71
905.077	10.38
905.242	30.38
905.408	17.42
905.573	28.34
905.738	17.42
905.904	131.27
906.069	131.27
