Data from FLMT087451__5__13-51-13-532.txt Node

Date: Tue Jun 04 13:51:13 JST 2024
User: power
Spectrometer: FLMT08745
Trigger mode: 0
Integration Time (sec): 5.000000E-1
Scans to average: 11
Electric dark correction enabled: true
Nonlinearity correction enabled: false
Boxcar width: 0
XAxis mode: Wavelengths
Number of Pixels in Spectrum: 3648
>>>>>Begin Spectral Data<<<<<
194.923	-727.84
195.148	-727.84
195.372	-727.84
195.597	-774.68
195.821	-749.13
196.046	219.64
196.271	-106.74
196.495	-215.04
196.72	-107.48
196.944	-36.39
197.169	-30.28
197.393	155.03
197.618	33.21
197.842	223.34
198.067	32.1
198.291	-239.11
198.516	71.72
198.74	-186.53
198.964	232.97
199.189	23.59
199.413	211.68
199.637	195.57
199.862	1.19
200.086	-5.66
200.31	202.05
200.535	44.69
200.759	491.22
200.983	-169.68
201.207	-111.92
201.432	51.17
201.656	315.16
201.88	1
202.104	-177.46
202.328	209.08
202.552	236.85
202.777	49.51
203.001	-20.1
203.225	-42.5
203.449	-314.64
203.673	96.71
203.897	-42.32
204.121	37.29
204.345	239.26
204.569	-159.32
204.793	7.48
205.017	116.52
205.241	197.05
205.465	-112.85
205.689	-100.08
205.912	79.13
206.136	-182.64
206.36	-23.99
206.584	27.85
206.808	-172.28
207.032	178.54
207.255	111.15
207.479	132.44
207.703	48.4
207.927	0.26
208.15	-187.64
208.374	-62.87
208.598	-130.25
208.822	2.3
209.045	-70.64
209.269	1.37
209.492	540.83
209.716	313.68
209.94	63.39
210.163	70.43
210.387	329.05
210.61	216.12
210.834	-93.97
211.057	-38.06
211.281	-153.21
211.504	-85.08
211.728	-52.31
211.951	200.94
212.175	431.24
212.398	-30.1
212.622	-97.67
212.845	405.13
213.068	38.58
213.292	115.97
213.515	-128.03
213.738	-91.56
213.962	-8.25
214.185	-159.87
214.408	42.29
214.631	148.36
214.855	120.41
215.078	-54.72
215.301	111.15
215.524	-47.32
215.747	233.89
215.971	-67.31
216.194	-70.27
216.417	-56.76
216.64	161.14
216.863	1324.1
217.086	65.24
217.309	-160.8
217.532	240.74
217.755	-129.88
217.978	61.91
218.201	183.91
218.424	307.2
218.647	-39.91
218.87	-32.13
219.093	103.93
219.316	349.22
219.539	5.82
219.762	-120.07
219.985	-72.68
220.207	-333.89
220.43	48.4
220.653	42.29
220.876	-98.97
221.099	344.97
221.321	20.63
221.544	-82.3
221.767	76.9
221.99	-9.92
222.212	60.06
222.435	86.53
222.658	134.29
222.88	-155.8
223.103	405.87
223.326	-219.48
223.548	21
223.771	7.11
223.993	-24.54
224.216	-88.6
224.438	45.99
224.661	78.76
224.883	144.85
225.106	188.17
225.328	-116
225.551	263.33
225.773	-61.01
225.996	-72.31
226.218	-23.62
226.44	164.65
226.663	132.07
226.885	-23.99
227.108	44.14
227.33	160.21
227.552	38.21
227.774	26.92
227.997	11.93
228.219	104.12
228.441	247.78
228.663	160.21
228.886	-86.93
229.108	-10.85
229.33	2.48
229.552	-146.73
229.774	54.5
229.996	78.76
230.219	204.27
230.441	-60.46
230.663	62.83
230.885	-53.42
231.107	42.84
231.329	57.47
231.551	205.75
231.773	16.92
231.995	81.9
232.217	-26.4
232.439	-46.02
232.661	10.07
232.883	-4.37
233.105	-97.48
233.326	-78.79
233.548	315.53
233.77	-32.69
233.992	160.4
234.214	-87.86
234.436	-110.63
234.657	75.24
234.879	260.18
235.101	-191.53
235.323	109.67
235.544	48.4
235.766	109.12
235.988	123.19
236.21	240.37
236.431	309.42
236.653	100.23
236.874	241.3
237.096	173.91
237.318	-225.96
237.539	90.23
237.761	-31.02
237.982	10.26
238.204	441.97
238.425	-74.9
238.647	14.33
238.868	-33.8
239.09	151.51
239.311	-230.22
239.533	-43.43
239.754	221.67
239.975	-12.51
240.197	-98.6
240.418	-86.75
240.64	193.9
240.861	93.38
241.082	40.8
241.304	-27.14
241.525	8.41
241.746	-6.59
241.967	-292.98
242.189	1
242.41	323.12
242.631	600.26
242.852	-104.15
243.073	119.11
243.294	11.55
243.516	139.11
243.737	5.45
243.958	-130.99
244.179	87.83
244.4	443.45
244.621	-59.16
244.842	-7.51
245.063	352
245.284	126.52
245.505	38.95
245.726	17.48
245.947	264.44
246.168	-24.91
246.389	-79.9
246.61	46.17
246.831	349.78
247.052	8.41
247.272	53.02
247.493	-56.2
247.714	282.39
247.935	-145.62
248.156	163.17
248.376	81.35
248.597	360.52
248.818	8.04
249.039	-61.75
249.259	-28.25
249.48	-173.02
249.701	207.79
249.921	-104.52
250.142	-124.7
250.363	195.94
250.583	93.38
250.804	46.73
251.025	105.97
251.245	307.2
251.466	247.78
251.686	-41.21
251.907	-120.25
252.127	266.66
252.348	121.15
252.568	-48.24
252.789	196.68
253.009	209.64
253.23	414.2
253.45	62.46
253.67	81.35
253.891	-80.64
254.111	328.68
254.331	-36.76
254.552	14.33
254.772	162.8
254.992	33.03
255.213	-126.36
255.433	170.76
255.653	58.02
255.873	135.77
256.093	136.33
256.314	-95.63
256.534	-94.71
256.754	395.51
256.974	-62.31
257.194	-65.46
257.414	21.92
257.634	123.19
257.855	-23.43
258.075	-137.84
258.295	2.67
258.515	-48.8
258.735	134.48
258.955	19.52
259.175	-21.21
259.395	77.46
259.615	30.99
259.835	98.56
260.054	37.66
260.274	184.46
260.494	9.33
260.714	389.77
260.934	179.46
261.154	172.8
261.374	-42.87
261.593	-46.76
261.813	-156.72
262.033	17.66
262.253	-40.47
262.472	56.17
262.692	101.53
262.912	174.1
263.132	69.68
263.351	87.09
263.571	454.38
263.791	164.84
264.01	154.47
264.23	78.02
264.449	9.15
264.669	413.65
264.888	130.04
265.108	-1.4
265.328	422.72
265.547	107.64
265.767	42.29
265.986	-183.57
266.205	205.57
266.425	63.95
266.644	33.21
266.864	-178.38
267.083	350.89
267.303	28.03
267.522	81.9
267.741	44.88
267.961	310.35
268.18	-132.29
268.399	179.09
268.618	40.99
268.838	312.01
269.057	54.13
269.276	13.78
269.495	21.37
269.715	416.98
269.934	-72.86
270.153	186.31
270.372	-159.13
270.591	236.11
270.81	295.91
271.029	169.28
271.249	62.65
271.468	22.66
271.687	334.6
271.906	29.51
272.125	162.43
272.344	272.77
272.563	32.29
272.782	11.18
273.001	-118.77
273.22	140.4
273.439	208.53
273.657	116.89
273.876	120.78
274.095	-172.83
274.314	283.51
274.533	170.58
274.752	21
274.971	271.1
275.189	434.94
275.408	194.83
275.627	-14.92
275.846	268.7
276.064	85.24
276.283	-172.65
276.502	80.42
276.72	-78.05
276.939	34.51
277.158	-93.04
277.376	-34.36
277.595	221.49
277.814	73.39
278.032	166.51
278.251	-128.96
278.469	-59.9
278.688	99.12
278.906	266.84
279.125	23.22
279.343	65.24
279.562	73.02
279.78	-202.82
279.999	38.03
280.217	95.97
280.435	99.3
280.654	-111.18
280.872	132.81
281.091	170.21
281.309	161.14
281.527	142.44
281.746	-19.92
281.964	-63.24
282.182	116.89
282.4	3.96
282.619	242.22
282.837	392.17
283.055	-13.25
283.273	-38.98
283.491	6.56
283.71	195.39
283.928	51.54
284.146	-8.07
284.364	51.54
284.582	67.46
284.8	135.22
285.018	85.79
285.236	-170.42
285.454	315.35
285.672	222.97
285.89	-46.57
286.108	-160.24
286.326	138
286.544	196.31
286.762	-57.5
286.98	-173.76
287.198	475.85
287.416	712.63
287.634	152.25
287.851	44.51
288.069	135.96
288.287	72.65
288.505	-96.19
288.723	73.39
288.94	200.75
289.158	80.42
289.376	239.82
289.594	19.52
289.811	-71.01
290.029	20.81
290.247	279.25
290.464	131.52
290.682	-122.48
290.9	190.39
291.117	88.57
291.335	-5.29
291.552	-110.26
291.77	140.59
291.987	-40.84
292.205	-18.99
292.422	139.66
292.64	288.69
292.857	-170.98
293.075	-17.51
293.292	60.98
293.51	141.7
293.727	-67.12
293.945	-157.09
294.162	162.99
294.379	138.18
294.597	-64.16
294.814	-66.57
295.031	157.06
295.249	289.06
295.466	-8.25
295.683	-55.28
295.9	202.05
296.118	36.36
296.335	-127.84
296.552	12.3
296.769	486.03
296.986	267.03
297.204	-75.08
297.421	-44.17
297.638	221.86
297.855	280.36
298.072	-144.51
298.289	-18.81
298.506	35.07
298.723	314.24
298.94	-96.93
299.157	-9.92
299.374	169.47
299.591	358.3
299.808	-144.14
300.025	-153.02
300.242	65.61
300.459	272.95
300.676	-118.59
300.893	-87.67
301.109	312.38
301.326	428.09
301.543	154.1
301.76	41.18
301.977	140.96
302.193	129.48
302.41	240.93
302.627	-129.33
302.844	76.16
303.06	87.27
303.277	-68.42
303.494	2.85
303.71	147.99
303.927	280.73
304.144	-57.87
304.36	37.84
304.577	102.27
304.793	306.09
305.01	-134.69
305.227	-93.97
305.443	217.23
305.66	588.22
305.876	-165.06
306.093	-98.78
306.309	255
306.526	-17.69
306.742	294.8
306.958	126.33
307.175	375.51
307.391	140.22
307.608	135.4
307.824	30.25
308.04	327.75
308.257	98.75
308.473	133.55
308.689	-131.18
308.905	344.23
309.122	54.13
309.338	-130.07
309.554	90.6
309.77	305.72
309.986	288.32
310.203	-158.21
310.419	-43.98
310.635	272.03
310.851	7.85
311.067	190.57
311.283	-81.93
311.499	-58.61
311.715	73.76
311.931	143.92
312.147	15.63
312.363	-152.47
312.579	271.1
312.795	-0.66
313.011	-167.83
313.227	12.11
313.443	435.12
313.659	68.39
313.875	-62.13
314.091	322.01
314.307	320.53
314.523	-80.64
314.738	-37.13
314.954	464.56
315.17	16.37
315.386	-1.59
315.602	-63.98
315.817	101.53
316.033	122.08
316.249	-18.07
316.465	-11.77
316.68	61.35
316.896	235.56
317.112	-73.79
317.327	-38.8
317.543	742.99
317.758	186.31
317.974	256.66
318.19	287.58
318.405	340.52
318.621	409.58
318.836	211.12
319.052	187.61
319.267	438.27
319.483	242.04
319.698	289.43
319.914	222.41
320.129	340.52
320.344	635.06
320.56	280.17
320.775	338.3
320.99	427.16
321.206	393.47
321.421	224.26
321.636	28.77
321.852	342.19
322.067	209.64
322.282	-45.46
322.498	-65.83
322.713	310.16
322.928	379.03
323.143	-48.8
323.358	26.18
323.574	414.76
323.789	107.64
324.004	-39.91
324.219	34.14
324.434	434.94
324.649	182.43
324.864	146.88
325.079	69.31
325.294	158.36
325.509	48.02
325.724	162.99
325.939	-8.62
326.154	309.42
326.369	764.09
326.584	-18.07
326.799	-136.92
327.014	517.69
327.229	137.26
327.444	81.53
327.659	64.5
327.873	379.4
328.088	444.56
328.303	178.91
328.518	55.61
328.733	195.94
328.947	419.76
329.162	143.18
329.377	151.88
329.591	471.78
329.806	155.21
330.021	29.88
330.235	173.54
330.45	327.19
330.665	-16.77
330.879	23.59
331.094	159.66
331.309	204.83
331.523	297.02
331.738	101.53
331.952	115.6
332.167	507.51
332.381	57.28
332.596	114.67
332.81	159.66
333.025	391.25
333.239	767.24
333.453	597.66
333.668	782.79
333.882	1205.62
334.097	1039.93
334.311	897.57
334.525	891.64
334.74	982.36
334.954	703.56
335.168	676.9
335.382	620.06
335.597	795.19
335.811	670.23
336.025	746.88
336.239	530.65
336.453	911.82
336.668	798.9
336.882	393.28
337.096	410.32
337.31	661.72
337.524	837.96
337.738	871.47
337.952	1071.96
338.166	1557.91
338.38	1702.87
338.594	1546.06
338.808	1297.44
339.022	1652.33
339.236	1171.74
339.45	835.37
339.664	1190.62
339.878	948.85
340.092	691.34
340.306	572.49
340.52	799.64
340.734	1167.85
340.948	1090.47
341.161	1130.46
341.375	1103.06
341.589	1324.28
341.803	1348.54
342.017	1273
342.23	1380.19
342.444	2059.79
342.658	1892.62
342.871	1891.33
343.085	1681.76
343.299	1575.87
343.512	1525.89
343.726	1105.28
343.94	1095.47
344.153	1183.59
344.367	1045.48
344.58	593.04
344.794	535.65
345.008	483.63
345.221	502.32
345.435	665.61
345.648	703.37
345.862	800.93
346.075	899.23
346.288	826.85
346.502	831.11
346.715	860.36
346.929	367.92
347.142	482.33
347.355	542.13
347.569	879.06
347.782	1000.68
347.995	954.96
348.209	1090.28
348.422	1172.48
348.635	1684.35
348.848	1814.31
349.062	1826.16
349.275	2458.37
349.488	2237.33
349.701	1905.76
349.914	1317.99
350.128	1464.61
350.341	1026.05
350.554	508.8
350.767	472.7
350.98	705.41
351.193	470.67
351.406	369.03
351.619	489.92
351.832	706.33
352.045	509.91
352.258	421.05
352.471	571.19
352.684	821.48
352.897	1045.67
353.11	849.99
353.323	1073.25
353.536	911.64
353.748	1487.75
353.961	1145.64
354.174	1405.55
354.387	1843.38
354.6	1795.61
354.813	1863
355.025	1840.79
355.238	2051.27
355.451	1883.36
355.664	1797.47
355.876	1941.49
356.089	2318.04
356.302	2030.35
356.514	2023.88
356.727	1747.67
356.94	1880.03
357.152	1741.56
357.365	1768.77
357.577	1609.01
357.79	1535.7
358.002	1202.84
358.215	1285.41
358.427	1399.26
358.64	1748.41
358.852	1357.98
359.065	1220.43
359.277	1080.84
359.49	1428.14
359.702	1223.21
359.915	712.81
360.127	446.79
360.339	445.68
360.552	389.21
360.764	384.58
360.976	251.66
361.189	226.3
361.401	619.51
361.613	342.38
361.825	35.99
362.038	391.62
362.25	527.87
362.462	129.11
362.674	63.39
362.886	630.43
363.099	429.94
363.311	185.94
363.523	299.8
363.735	567.12
363.947	344.23
364.159	344.04
364.371	239.63
364.583	267.95
364.795	265.55
365.007	260.55
365.219	52.47
365.431	307.94
365.643	180.95
365.855	43.95
366.067	-86.19
366.279	177.98
366.491	133.55
366.703	142.25
366.914	-0.11
367.126	192.24
367.338	403.65
367.55	40.99
367.762	68.57
367.974	146.51
368.185	-2.7
368.397	138.92
368.609	54.13
368.82	319.23
369.032	442.9
369.244	117.26
369.456	304.61
369.667	399.58
369.879	564.9
370.09	152.25
370.302	277.21
370.514	714.85
370.725	606.92
370.937	263.14
371.148	433.83
371.36	725.59
371.571	582.67
371.783	488.07
371.994	426.05
372.206	523.43
372.417	942.18
372.629	275.91
372.84	212.79
373.051	324.6
373.263	603.59
373.474	275.91
373.685	168.36
373.897	475.85
374.108	508.8
374.319	192.05
374.531	274.62
374.742	573.97
374.953	378.1
375.164	170.58
375.375	178.35
375.587	316.09
375.798	447.53
376.009	361.44
376.22	277.21
376.431	409.21
376.642	298.32
376.853	377.55
377.065	467.34
377.276	531.39
377.487	394.21
377.698	206.12
377.909	385.69
378.12	600.26
378.331	279.43
378.542	272.03
378.753	206.49
378.964	356.82
379.174	468.82
379.385	248.33
379.596	97.08
379.807	571.19
380.018	154.1
380.229	383.66
380.44	365.7
380.65	185.2
380.861	427.9
381.072	222.97
381.283	341.82
381.493	685.23
381.704	644.13
381.915	360.33
382.126	266.1
382.336	793.9
382.547	759.46
382.757	421.05
382.968	293.87
383.179	526.76
383.389	726.51
383.6	356.07
383.81	272.21
384.021	817.78
384.231	827.59
384.442	277.4
384.652	186.31
384.863	717.07
385.073	584.15
385.284	538.24
385.494	364.41
385.705	445.49
385.915	420.87
386.125	306.83
386.336	289.24
386.546	227.6
386.756	531.57
386.967	120.78
387.177	262.4
387.387	624.32
387.598	346.26
387.808	252.96
388.018	283.51
388.228	436.05
388.439	497.33
388.649	247.41
388.859	224.82
389.069	640.8
389.279	310.72
389.489	341.45
389.699	299.61
389.909	347.74
390.12	138.18
390.33	442.16
390.54	176.5
390.75	592.48
390.96	254.63
391.17	215.01
391.38	132.81
391.59	102.08
391.799	242.78
392.009	363.66
392.219	109.12
392.429	231.11
392.639	265.55
392.849	95.97
393.059	178.35
393.269	519.91
393.478	383.29
393.688	390.32
393.898	356.82
394.108	199.46
394.317	310.35
394.527	172.06
394.737	266.47
394.947	321.64
395.156	194.09
395.366	240.19
395.576	287.39
395.785	383.1
395.995	459.19
396.204	212.79
396.414	-18.62
396.624	205.2
396.833	53.95
397.043	3.78
397.252	93.2
397.462	589.89
397.671	195.57
397.881	-58.61
398.09	90.97
398.299	18.59
398.509	215.93
398.718	158.55
398.928	146.51
399.137	514.91
399.346	236.85
399.556	143.36
399.765	-86.56
399.974	85.42
400.184	259.62
400.393	207.42
400.602	177.8
400.811	411.8
401.021	250.55
401.23	353.85
401.439	316.83
401.648	430.68
401.857	287.76
402.066	152.25
402.276	145.4
402.485	550.83
402.694	243.33
402.903	115.41
403.112	22.66
403.321	555.46
403.53	472.89
403.739	187.42
403.948	244.07
404.157	632.84
404.366	418.83
404.575	330.16
404.784	408.65
404.993	509.73
405.202	815
405.411	266.84
405.619	10.07
405.828	302.57
406.037	361.07
406.246	75.61
406.455	-35.1
406.663	475.11
406.872	273.32
407.081	402.17
407.29	413.46
407.498	557.86
407.707	371.44
407.916	220.19
408.124	192.98
408.333	713.74
408.542	48.4
408.75	105.78
408.959	53.58
409.168	321.83
409.376	306.65
409.585	359.96
409.793	285.91
410.002	535.28
410.21	676.9
410.419	373.48
410.627	232.23
410.836	402.73
411.044	351.26
411.253	140.22
411.461	29.14
411.669	594.52
411.878	508.43
412.086	58.21
412.294	185.02
412.503	179.46
412.711	543.61
412.919	330.71
413.128	210.57
413.336	223.34
413.544	604.51
413.752	299.98
413.961	290.73
414.169	254.81
414.377	455.3
414.585	224.82
414.793	69.5
415.001	174.84
415.209	327.75
415.418	75.98
415.626	270.18
415.834	257.77
416.042	264.62
416.25	81.35
416.458	139.29
416.666	428.09
416.874	845.92
417.082	639.5
417.29	355.33
417.498	515.1
417.706	404.95
417.913	313.5
418.121	297.02
418.329	729.1
418.537	189.46
418.745	102.64
418.953	227.04
419.161	588.22
419.368	319.6
419.576	-20.29
419.784	126.52
419.992	315.16
420.199	496.22
420.407	144.66
420.615	321.09
420.822	421.61
421.03	232.41
421.238	168.91
421.445	59.5
421.653	448.27
421.861	1240.05
422.068	1377.04
422.276	1813.2
422.483	1926.68
422.691	2246.21
422.898	2087.19
423.106	1469.42
423.313	1464.98
423.521	1612.34
423.728	1459.8
423.936	1661.21
424.143	2126.62
424.35	2512.42
424.558	2279.9
424.765	2213.63
424.973	2082.93
425.18	1843.75
425.387	2066.08
425.594	1974.08
425.802	2561.3
426.009	1876.7
426.216	1690.83
426.424	1506.45
426.631	1571.06
426.838	1114.17
427.045	842.03
427.252	718.74
427.459	952.55
427.667	844.07
427.874	332.38
428.081	305.54
428.288	489.74
428.495	147.25
428.702	290.54
428.909	57.28
429.116	91.71
429.323	226.49
429.53	242.04
429.737	115.78
429.944	523.98
430.151	400.5
430.358	684.86
430.565	651.72
430.772	634.87
430.979	764.09
431.185	856.84
431.392	867.21
431.599	1422.22
431.806	1280.59
432.013	1157.49
432.219	1042.71
432.426	1162.3
432.633	948.66
432.84	697.45
433.046	600.81
433.253	635.06
433.46	814.45
433.666	456.41
433.873	624.88
434.08	865.54
434.286	699.67
434.493	686.52
434.7	416.8
434.906	653.76
435.113	289.8
435.319	656.35
435.526	152.44
435.732	558.6
435.939	331.45
436.145	105.97
436.352	168.54
436.558	244.63
436.765	700.41
436.971	163.36
437.177	270.18
437.384	62.28
437.59	176.32
437.796	283.13
438.003	111.71
438.209	702.63
438.415	185.2
438.622	206.86
438.828	207.23
439.034	534.35
439.24	342.75
439.447	400.13
439.653	329.23
439.859	484.55
440.065	486.03
440.271	273.88
440.477	349.6
440.683	424.76
440.89	185.57
441.096	412.54
441.302	260.36
441.508	558.97
441.714	103.19
441.92	-20.66
442.126	-50.46
442.332	430.13
442.538	186.31
442.744	156.32
442.95	260.73
443.156	313.5
443.361	542.31
443.567	106.15
443.773	229.82
443.979	675.97
444.185	211.31
444.391	95.05
444.596	208.71
444.802	290.35
445.008	1006.42
445.214	133.37
445.42	516.95
445.625	231.67
445.831	530.83
446.037	313.68
446.242	316.27
446.448	285.73
446.654	332.75
446.859	132.81
447.065	130.96
447.27	535.83
447.476	303.31
447.682	-6.96
447.887	275.54
448.093	519.91
448.298	246.48
448.504	292.39
448.709	80.61
448.915	491.22
449.12	126.15
449.325	162.62
449.531	81.53
449.736	369.59
449.942	18.77
450.147	232.6
450.352	222.97
450.558	299.06
450.763	363.66
450.968	647.46
451.174	412.54
451.379	584.34
451.584	628.21
451.789	561.75
451.995	541.02
452.2	266.66
452.405	163.17
452.61	255
452.815	418.09
453.02	255.18
453.226	156.32
453.431	206.49
453.636	82.46
453.841	330.71
454.046	298.87
454.251	190.39
454.456	174.1
454.661	409.39
454.866	362.37
455.071	373.11
455.276	329.05
455.481	555.83
455.686	386.99
455.891	409.76
456.095	508.62
456.3	536.76
456.505	344.97
456.71	435.12
456.915	396.99
457.12	530.65
457.324	387.55
457.529	585.45
457.734	619.14
457.939	585.45
458.144	551.38
458.348	433.09
458.553	469.56
458.758	370.33
458.962	296.09
459.167	362.55
459.372	458.08
459.576	772.42
459.781	380.14
459.985	238.89
460.19	254.44
460.394	202.05
460.599	373.29
460.803	115.23
461.008	281.28
461.212	344.78
461.417	481.4
461.621	270.36
461.826	392.91
462.03	309.05
462.235	598.96
462.439	562.49
462.643	746.69
462.848	850.92
463.052	403.47
463.256	487.51
463.461	352
463.665	353.11
463.869	532.31
464.074	255.18
464.278	210.75
464.482	556.75
464.686	-26.4
464.89	203.53
465.095	267.21
465.299	75.05
465.503	237.22
465.707	83.94
465.911	89.12
466.115	245.55
466.319	97.27
466.523	379.59
466.727	89.68
466.931	418.65
467.135	248.7
467.339	338.49
467.543	184.09
467.747	418.28
467.951	321.83
468.155	232.41
468.359	473.44
468.563	351.45
468.767	491.77
468.971	303.87
469.175	303.31
469.379	484.74
469.582	798.9
469.786	417.54
469.99	379.77
470.194	637.84
470.397	783.72
470.601	492.14
470.805	553.79
471.009	592.48
471.212	437.16
471.416	275.36
471.62	242.96
471.823	347.19
472.027	549.53
472.23	-52.31
472.434	348.67
472.638	450.3
472.841	582.67
473.045	623.77
473.248	691.71
473.452	1022.53
473.655	1017.34
473.859	678.56
474.062	514.17
474.266	735.4
474.469	345.89
474.672	365.7
474.876	304.24
475.079	275.17
475.283	435.68
475.486	174.47
475.689	100.79
475.893	281.65
476.096	464.93
476.299	46.91
476.502	40.43
476.706	297.39
476.909	393.84
477.112	468.26
477.315	364.22
477.519	784.83
477.722	753.36
477.925	474.93
478.128	323.86
478.331	398.84
478.534	250.18
478.737	395.88
478.94	187.05
479.143	-4.92
479.346	360.7
479.549	350.89
479.752	183.91
479.955	255.92
480.158	532.31
480.361	356.44
480.564	259.25
480.767	332.19
480.97	310.35
481.173	219.64
481.376	281.65
481.579	315.53
481.782	324.05
481.984	453.45
482.187	486.4
482.39	715.59
482.593	785.94
482.796	745.76
482.998	633.02
483.201	1040.12
483.404	776.31
483.606	336.08
483.809	746.32
484.012	637.65
484.214	633.02
484.417	705.59
484.62	608.59
484.822	578.97
485.025	954.03
485.227	1014.94
485.43	615.07
485.632	581.56
485.835	826.48
486.037	582.67
486.24	274.99
486.442	1109.91
486.645	361.44
486.847	241.11
487.05	323.49
487.252	448.82
487.455	386.44
487.657	327.38
487.859	305.54
488.062	367.18
488.264	372.55
488.466	295.54
488.668	308.68
488.871	273.88
489.073	456.97
489.275	344.6
489.477	218.34
489.68	341.08
489.882	358.85
490.084	310.9
490.286	478.26
490.488	448.82
490.69	276.47
490.893	421.79
491.095	70.8
491.297	568.04
491.499	609.7
491.701	404.95
491.903	238.15
492.105	399.58
492.307	339.78
492.509	389.77
492.711	96.9
492.913	564.9
493.115	558.97
493.317	361.81
493.518	388.66
493.72	481.96
493.922	449.01
494.124	352.74
494.326	433.64
494.528	312.38
494.73	613.96
494.931	667.09
495.133	306.46
495.335	668.75
495.537	542.68
495.738	604.33
495.94	374.4
496.142	264.44
496.343	339.78
496.545	276.66
496.747	376.07
496.948	338.86
497.15	442.16
497.351	205.75
497.553	160.58
497.755	489.18
497.956	813.34
498.158	483.44
498.359	548.05
498.561	579.34
498.762	353.67
498.964	498.62
499.165	512.14
499.366	538.05
499.568	231.67
499.769	380.51
499.971	408.28
500.172	586.19
500.373	517.87
500.575	543.24
500.776	589.89
500.977	645.61
501.178	655.42
501.38	529.17
501.581	516.02
501.782	469.74
501.983	663.57
502.185	287.95
502.386	204.27
502.587	229.82
502.788	342.75
502.989	190.2
503.19	292.21
503.391	386.25
503.593	265.92
503.794	139.48
503.995	144.29
504.196	692.45
504.397	391.43
504.598	498.44
504.799	506.77
505	1132.68
505.201	1232.09
505.402	944.78
505.602	735.58
505.803	665.98
506.004	612.66
506.205	669.49
506.406	587.11
506.607	624.51
506.808	838.51
507.008	470.3
507.209	451.6
507.41	718.55
507.611	162.25
507.812	181.5
508.012	161.14
508.213	368.11
508.414	209.64
508.614	249.44
508.815	101.9
509.016	648.39
509.216	526.95
509.417	372.37
509.617	271.1
509.818	378.29
510.019	521.02
510.219	236.85
510.42	117.26
510.62	443.64
510.821	429.38
511.021	459.75
511.222	503.62
511.422	834.26
511.623	513.43
511.823	665.98
512.023	338.67
512.224	871.65
512.424	275.54
512.624	450.86
512.825	271.29
513.025	678.75
513.225	261.29
513.426	358.3
513.626	133.37
513.826	564.34
514.026	548.61
514.227	373.29
514.427	240.74
514.627	107.45
514.827	235.74
515.027	453.45
515.228	218.71
515.428	488.62
515.628	267.95
515.828	260.36
516.028	129.85
516.228	560.64
516.428	523.61
516.628	514.36
516.828	537.31
517.028	1603.08
517.228	2013.14
517.428	2564.26
517.628	3086.31
517.828	3597.26
518.028	3591.71
518.228	2828.8
518.428	2407.27
518.627	2313.23
518.827	1888.92
519.027	1765.44
519.227	1611.04
519.427	1493.3
519.626	960.51
519.826	774.46
520.026	454.19
520.226	637.28
520.425	649.68
520.625	150.77
520.825	-9.73
521.024	381.44
521.224	196.87
521.424	281.47
521.623	52.84
521.823	216.67
522.023	381.25
522.222	155.95
522.422	146.88
522.621	556.57
522.821	327.94
523.02	343.86
523.22	282.58
523.419	603.22
523.619	463.26
523.818	221.86
524.017	247.22
524.217	485.48
524.416	727.25
524.616	620.8
524.815	137.26
525.014	434.01
525.214	303.68
525.413	197.79
525.612	291.84
525.812	271.84
526.011	339.97
526.21	413.28
526.409	416.61
526.608	919.41
526.808	379.22
527.007	567.67
527.206	526.21
527.405	367.55
527.604	397.17
527.803	401.43
528.003	184.09
528.202	560.82
528.401	888.68
528.6	166.88
528.799	169.47
528.998	211.31
529.197	277.4
529.396	213.9
529.595	286.65
529.794	506.58
529.993	403.47
530.192	412.72
530.39	228.71
530.589	463.45
530.788	449.01
530.987	187.61
531.186	246.11
531.385	316.09
531.583	463.82
531.782	374.77
531.981	212.97
532.18	370.88
532.379	136.33
532.577	210.57
532.776	123.93
532.975	342.56
533.173	195.39
533.372	212.97
533.571	154.84
533.769	312.38
533.968	661.72
534.166	157.25
534.365	-78.6
534.564	311.46
534.762	241.48
534.961	-20.47
535.159	399.39
535.358	205.01
535.556	120.22
535.755	135.4
535.953	83.2
536.151	640.61
536.35	-23.99
536.548	154.66
536.747	59.13
536.945	163.73
537.143	253.51
537.342	72.83
537.54	171.69
537.738	534.72
537.937	465.3
538.135	398.65
538.333	181.32
538.531	458.82
538.73	133.92
538.928	377.92
539.126	114.49
539.324	701.52
539.522	471.41
539.72	105.23
539.919	108.38
540.117	-86.38
540.315	262.03
540.513	238.15
540.711	123.74
540.909	186.87
541.107	217.04
541.305	62.83
541.503	275.73
541.701	206.49
541.899	125.22
542.097	271.84
542.295	-56.76
542.493	119.85
542.691	-83.23
542.888	120.04
543.086	-72.31
543.284	-50.46
543.482	451.97
543.68	305.72
543.878	236.3
544.075	155.77
544.273	114.3
544.471	127.81
544.669	227.41
544.866	453.64
545.064	277.77
545.262	169.47
545.459	166.88
545.657	500.66
545.855	211.68
546.052	-81.38
546.25	270.73
546.447	683.93
546.645	145.4
546.842	218.53
547.04	165.02
547.238	46.36
547.435	250.92
547.633	135.59
547.83	122.63
548.027	197.24
548.225	242.22
548.422	172.06
548.62	-37.13
548.817	220.19
549.014	127.44
549.212	123
549.409	152.44
549.606	231.48
549.804	309.61
550.001	152.44
550.198	5.45
550.396	68.94
550.593	-97.11
550.79	2.3
550.987	-142.84
551.184	271.66
551.382	439.2
551.579	-30.65
551.776	-219.48
551.973	139.66
552.17	65.8
552.367	302.02
552.564	29.14
552.761	200.75
552.958	165.02
553.155	107.08
553.353	138.92
553.55	177.43
553.746	186.5
553.943	173.17
554.14	130.96
554.337	353.11
554.534	375.14
554.731	179.09
554.928	106.15
555.125	760.95
555.322	169.47
555.519	59.13
555.715	75.79
555.912	92.83
556.109	228.15
556.306	30.99
556.503	169.28
556.699	248.52
556.896	437.72
557.093	263.33
557.289	165.39
557.486	177.8
557.683	705.22
557.879	74.5
558.076	73.39
558.273	186.68
558.469	197.05
558.666	55.43
558.862	193.35
559.059	219.08
559.255	373.85
559.452	57.65
559.648	82.83
559.845	101.34
560.041	131.89
560.238	195.76
560.434	73.02
560.631	85.42
560.827	236.67
561.023	94.68
561.22	-44.35
561.416	219.82
561.612	188.17
561.809	1.37
562.005	69.68
562.201	223.71
562.398	339.04
562.594	67.46
562.79	-58.24
562.986	543.98
563.182	240.93
563.379	53.02
563.575	20.26
563.771	238.15
563.967	419.02
564.163	-78.23
564.359	60.06
564.555	665.98
564.751	208.16
564.947	27.11
565.144	43.03
565.34	495.1
565.536	371.44
565.732	139.29
565.928	126.7
566.123	335.16
566.319	281.84
566.515	341.26
566.711	85.42
566.907	464.19
567.103	111.89
567.299	-108.41
567.495	57.47
567.691	60.06
567.886	543.61
568.082	85.61
568.278	158.55
568.474	487.51
568.669	346.08
568.865	97.64
569.061	41.55
569.257	306.83
569.452	312.2
569.648	-19.73
569.844	61.35
570.039	193.53
570.235	197.24
570.43	76.16
570.626	131.33
570.822	669.86
571.017	540.28
571.213	65.24
571.408	43.03
571.604	255.18
571.799	47.47
571.995	12.85
572.19	-26.4
572.385	33.58
572.581	140.96
572.776	278.51
572.972	206.31
573.167	81.53
573.362	249.26
573.558	225.01
573.753	122.63
573.948	380.33
574.144	203.9
574.339	74.13
574.534	-53.42
574.729	39.51
574.925	286.84
575.12	166.32
575.315	-98.78
575.51	273.69
575.705	101.34
575.9	89.49
576.096	169.47
576.291	147.07
576.486	189.28
576.681	113.37
576.876	176.87
577.071	300.35
577.266	103.01
577.461	123.37
577.656	158.73
577.851	242.22
578.046	326.82
578.241	206.49
578.436	-11.22
578.631	235.74
578.826	565.82
579.021	-53.05
579.215	-12.14
579.41	626.54
579.605	273.32
579.8	130.04
579.995	149.66
580.189	238.52
580.384	225.19
580.579	350.34
580.774	12.3
580.968	242.59
581.163	146.7
581.358	212.05
581.552	69.87
581.747	210.38
581.942	301.46
582.136	65.8
582.331	-0.29
582.526	414.2
582.72	250
582.915	86.9
583.109	87.46
583.304	284.99
583.498	535.83
583.693	166.88
583.887	257.77
584.082	43.58
584.276	767.79
584.471	-64.53
584.665	51.73
584.859	9.15
585.054	86.9
585.248	181.32
585.442	55.8
585.637	386.62
585.831	169.28
586.025	423.46
586.22	204.83
586.414	127.26
586.608	160.95
586.802	-36.58
586.997	60.8
587.191	56.73
587.385	220.01
587.579	135.22
587.773	162.62
587.967	228.15
588.162	371.44
588.356	63.76
588.55	123.19
588.744	223.71
588.938	255
589.132	-49.72
589.326	96.53
589.52	124.3
589.714	-4.18
589.908	-4.37
590.102	37.1
590.296	166.14
590.49	233.15
590.684	39.69
590.877	35.81
591.071	206.86
591.265	157.43
591.459	67.09
591.653	-125.99
591.847	155.03
592.04	1.74
592.234	44.69
592.428	-175.98
592.622	228.71
592.815	125.96
593.009	-115.63
593.203	121.15
593.397	238.33
593.59	235.93
593.784	48.02
593.977	-60.46
594.171	128.55
594.365	289.24
594.558	11
594.752	-38.43
594.945	159.84
595.139	175.39
595.332	-51.2
595.526	-92.67
595.719	82.64
595.913	308.68
596.106	11.93
596.3	57.84
596.493	306.83
596.687	195.76
596.88	25.44
597.073	-24.36
597.267	182.8
597.46	184.09
597.653	122.63
597.847	-41.39
598.04	337.38
598.233	538.98
598.426	-155.61
598.62	-46.57
598.813	16.92
599.006	369.4
599.199	34.88
599.392	26.92
599.586	398.47
599.779	76.16
599.972	7.11
600.165	121.33
600.358	190.76
600.551	514.17
600.744	82.46
600.937	83.38
601.13	334.04
601.323	214.45
601.516	83.94
601.709	179.28
601.902	314.24
602.095	396.25
602.288	122.45
602.481	31.18
602.674	209.64
602.867	451.23
603.06	59.13
603.252	-116.37
603.445	508.25
603.638	209.08
603.831	83.38
604.024	-155.8
604.216	347
604.409	118.56
604.602	-205.78
604.795	172.61
604.987	214.64
605.18	327.94
605.373	163.36
605.565	53.76
605.758	343.67
605.951	60.24
606.143	108.19
606.336	73.02
606.528	390.32
606.721	84.86
606.913	70.61
607.106	171.32
607.298	463.26
607.491	323.31
607.683	61.35
607.876	28.77
608.068	164.47
608.261	351.82
608.453	235.19
608.646	148.36
608.838	314.24
609.03	467.89
609.223	61.54
609.415	-46.94
609.607	232.41
609.8	281.47
609.992	45.25
610.184	232.6
610.376	303.5
610.569	368.29
610.761	-25.1
610.953	-57.5
611.145	421.42
611.337	271.84
611.529	91.71
611.722	73.76
611.914	54.69
612.106	107.45
612.298	-23.06
612.49	57.84
612.682	879.06
612.874	586.56
613.066	11.55
613.258	131.89
613.45	261.48
613.642	425.13
613.834	182.43
614.026	134.29
614.218	506.03
614.41	405.87
614.602	207.79
614.793	348.85
614.985	543.05
615.177	303.5
615.369	184.09
615.561	28.03
615.753	513.43
615.944	557.86
616.136	108.93
616.328	-148.02
616.52	177.8
616.711	24.51
616.903	108.01
617.095	120.78
617.286	38.77
617.478	239.07
617.67	-80.08
617.861	35.81
618.053	345.52
618.244	68.57
618.436	-69.16
618.627	-182.09
618.819	113.37
619.01	377.73
619.202	-114.33
619.393	83.01
619.585	166.51
619.776	268.7
619.968	38.03
620.159	65.24
620.351	80.05
620.542	-35.84
620.733	10.44
620.925	-155.98
621.116	243.33
621.307	45.43
621.499	63.02
621.69	136.14
621.881	139.66
622.072	242.41
622.264	-39.91
622.455	56.73
622.646	503.25
622.837	79.87
623.028	22.11
623.22	82.09
623.411	576
623.602	160.58
623.793	76.35
623.984	44.88
624.175	371.07
624.366	348.85
624.557	80.79
624.748	-103.59
624.939	257.59
625.13	414.02
625.321	-54.91
625.512	-81.38
625.703	158.92
625.894	266.66
626.085	-131.36
626.276	-71.38
626.467	198.16
626.658	207.23
626.848	23.77
627.039	-35.84
627.23	66.35
627.421	170.76
627.612	72.46
627.802	322.01
627.993	333.3
628.184	636.91
628.375	191.13
628.565	122.45
628.756	-6.4
628.947	134.29
629.137	92.27
629.328	-83.41
629.519	-15.47
629.709	355.15
629.9	-197.45
630.09	-29.54
630.281	118.74
630.471	141.7
630.662	-46.76
630.852	-77.68
631.043	259.44
631.233	346.08
631.424	77.09
631.614	-101.56
631.805	467.34
631.995	436.97
632.185	60.24
632.376	31.18
632.566	293.69
632.756	171.5
632.947	-2.51
633.137	-203.56
633.327	597.29
633.518	208.34
633.708	48.95
633.898	53.95
634.088	338.67
634.279	8.41
634.469	-40.28
634.659	20.63
634.849	318.12
635.039	116.71
635.229	124.67
635.42	-24.54
635.61	267.95
635.8	-48.98
635.99	106.71
636.18	50.62
636.37	210.94
636.56	394.21
636.75	209.45
636.94	-11.77
637.13	110.97
637.32	425.68
637.51	-94.52
637.7	6
637.89	299.8
638.079	424.39
638.269	-62.68
638.459	15.26
638.649	181.87
638.839	686.71
639.029	152.62
639.218	63.21
639.408	155.4
639.598	329.97
639.788	50.43
639.977	-51.2
640.167	229.26
640.357	149.1
640.546	-127.1
640.736	5.63
640.926	469
641.115	389.21
641.305	30.99
641.495	53.95
641.684	268.88
641.874	307.39
642.063	-56.39
642.253	144.48
642.442	422.16
642.632	346.26
642.821	-83.04
643.011	-76.01
643.2	261.66
643.39	255.18
643.579	92.83
643.768	14.7
643.958	307.02
644.147	140.96
644.336	-6.4
644.526	283.69
644.715	175.02
644.904	343.49
645.094	257.96
645.283	-89.52
645.472	418.46
645.661	273.14
645.851	-27.88
646.04	46.36
646.229	-18.99
646.418	272.4
646.607	63.95
646.796	-63.61
646.986	271.1
647.175	355.89
647.364	189.65
647.553	121.52
647.742	216.49
647.931	129.85
648.12	3.22
648.309	-108.96
648.498	270.55
648.687	574.52
648.876	-78.6
649.065	-23.43
649.254	193.72
649.443	-45.46
649.632	257.77
649.82	99.86
650.009	169.65
650.198	-221.89
650.387	10.63
650.576	-9.36
650.765	341.82
650.953	187.05
651.142	4.89
651.331	-26.58
651.52	253.14
651.708	494.55
651.897	158.17
652.086	-16.58
652.274	88.94
652.463	612.29
652.652	715.59
652.84	820
653.029	1385.01
653.217	1462.02
653.406	1327.06
653.594	1207.1
653.783	1389.26
653.972	1094.54
654.16	942.18
654.349	669.12
654.537	934.04
654.725	1131.2
654.914	480.66
655.102	176.69
655.291	401.8
655.479	220.56
655.667	111.89
655.856	32.66
656.044	202.05
656.232	412.54
656.421	130.04
656.609	-32.13
656.797	455.86
656.986	192.24
657.174	197.61
657.362	-90.82
657.55	301.46
657.738	258.51
657.927	88.57
658.115	113.56
658.303	73.02
658.491	345.71
658.679	31.18
658.867	-21.77
659.055	-69.72
659.243	241.48
659.431	-6.77
659.619	-63.98
659.807	362.74
659.995	368.29
660.183	50.99
660.371	-72.31
660.559	609.33
660.747	182.98
660.935	113.93
661.123	-117.85
661.311	246.29
661.499	41.55
661.687	37.29
661.875	54.87
662.062	372.18
662.25	285.54
662.438	131.7
662.626	84.86
662.813	269.99
663.001	147.99
663.189	-62.31
663.377	15.07
663.564	127.44
663.752	330.34
663.94	51.54
664.127	18.4
664.315	441.42
664.502	120.59
664.69	360.89
664.878	195.94
665.065	331.27
665.253	312.01
665.44	302.39
665.628	49.32
665.815	404.58
666.003	445.68
666.19	112.82
666.378	55.99
666.565	287.76
666.752	554.53
666.94	236.48
667.127	75.05
667.315	385.51
667.502	219.64
667.689	-236.88
667.877	-155.43
668.064	645.43
668.251	38.95
668.438	19.52
668.626	-86.93
668.813	225.01
669	149.1
669.187	-58.98
669.374	3.96
669.562	-48.8
669.749	519.91
669.936	72.09
670.123	-76.01
670.31	454.38
670.497	99.67
670.684	94.12
670.871	-61.2
671.058	277.4
671.245	209.27
671.432	242.59
671.619	101.16
671.806	498.81
671.993	706.7
672.18	272.77
672.367	98.01
672.554	140.03
672.741	220.19
672.928	168.91
673.115	229.08
673.302	329.6
673.488	346.08
673.675	119.67
673.862	-15.1
674.049	429.75
674.235	271.84
674.422	88.38
674.609	105.6
674.796	206.31
674.982	88.2
675.169	-26.03
675.356	108.38
675.542	404.76
675.729	305.72
675.916	48.77
676.102	84.49
676.289	473.26
676.475	60.06
676.662	-43.24
676.848	54.32
677.035	240.37
677.221	124.85
677.408	157.8
677.594	204.46
677.781	381.81
677.967	284.99
678.154	-64.16
678.34	79.87
678.526	3.78
678.713	301.09
678.899	-4.92
679.085	81.9
679.272	28.22
679.458	232.6
679.644	158.73
679.831	-240.03
680.017	477.89
680.203	306.46
680.389	187.42
680.576	171.87
680.762	40.99
680.948	299.98
681.134	11.74
681.32	-82.67
681.506	275.91
681.692	200.57
681.879	103.56
682.065	104.86
682.251	485.11
682.437	61.91
682.623	95.97
682.809	-132.47
682.995	-120.81
683.181	433.83
683.367	300.91
683.553	-89.89
683.739	299.24
683.924	357
684.11	198.53
684.296	307.2
684.482	751.69
684.668	256.66
684.854	67.65
685.04	173.91
685.225	248.15
685.411	387.92
685.597	47.28
685.783	105.04
685.968	79.5
686.154	190.94
686.34	-81.38
686.526	-42.5
686.711	5.45
686.897	607.11
687.083	-75.45
687.268	188.17
687.454	152.62
687.639	295.91
687.825	40.43
688.01	232.23
688.196	260.92
688.382	429.57
688.567	238.7
688.752	212.79
688.938	-46.39
689.123	672.83
689.309	83.57
689.494	-168.57
689.68	424.2
689.865	550.64
690.05	130.59
690.236	176.87
690.421	116.34
690.606	-142.84
690.792	116.15
690.977	16.37
691.162	272.03
691.348	236.3
691.533	-56.94
691.718	-181.16
691.903	167.62
692.089	127.63
692.274	15.63
692.459	157.99
692.644	1171.93
692.829	2290.27
693.014	2440.78
693.199	3221.64
693.384	3723.89
693.569	4319.99
693.755	3792.94
693.94	3364.93
694.125	3363.26
694.31	2435.04
694.495	2178.09
694.68	1682.87
694.864	1781.92
695.049	1213.95
695.234	900.9
695.419	1037.89
695.604	701.52
695.789	596.74
695.974	435.49
696.159	154.1
696.344	326.27
696.528	290.54
696.713	55.24
696.898	177.8
697.083	282.21
697.267	46.91
697.452	-72.68
697.637	-3.26
697.822	156.14
698.006	235.93
698.191	120.96
698.375	150.4
698.56	327.01
698.745	289.98
698.929	73.94
699.114	50.99
699.298	360.15
699.483	528.8
699.668	41.73
699.852	-127.66
700.037	227.23
700.221	-65.83
700.405	370.33
700.59	256.66
700.774	277.95
700.959	80.24
701.143	101.53
701.328	209.64
701.512	-36.21
701.696	3.22
701.881	182.43
702.065	-16.58
702.249	53.76
702.433	485.48
702.618	254.26
702.802	811.67
702.986	1736.19
703.17	3378.63
703.355	2752.9
703.539	3136.48
703.723	3838.3
703.907	3530.06
704.091	3145.37
704.275	2658.12
704.46	2179.94
704.644	2196.04
704.828	1511.82
705.012	1126.01
705.196	1230.24
705.38	731.33
705.564	1102.69
705.748	492.51
705.932	844.62
706.116	361.26
706.3	194.46
706.484	68.57
706.668	425.5
706.851	357.56
707.035	291.28
707.219	278.14
707.403	340.15
707.587	105.41
707.771	189.28
707.954	38.4
708.138	439.38
708.322	208.16
708.506	-4.74
708.689	136.89
708.873	-5.29
709.057	194.46
709.241	325.53
709.424	83.57
709.608	426.42
709.792	41.92
709.975	68.76
710.159	-33.62
710.342	228.71
710.526	441.23
710.709	203.72
710.893	168.54
711.077	546.2
711.26	671.16
711.443	423.83
711.627	542.68
711.81	960.33
711.994	429.38
712.177	392.36
712.361	345.34
712.544	274.8
712.727	438.27
712.911	330.71
713.094	164.65
713.277	384.77
713.461	419.39
713.644	110.04
713.827	304.24
714.011	54.32
714.194	134.48
714.377	173.36
714.56	252.03
714.743	380.14
714.927	325.9
715.11	125.59
715.293	-16.58
715.476	348.11
715.659	315.16
715.842	132.81
716.025	-57.87
716.208	236.11
716.391	460.12
716.575	48.95
716.758	206.86
716.941	135.59
717.124	278.51
717.306	181.87
717.489	-114.33
717.672	170.76
717.855	295.54
718.038	24.33
718.221	260.92
718.404	-43.24
718.587	23.59
718.77	-10.66
718.952	92.08
719.135	329.97
719.318	188.54
719.501	66.54
719.684	88.75
719.866	363.66
720.049	274.43
720.232	136.7
720.414	169.84
720.597	458.82
720.78	207.23
720.962	93.38
721.145	141.7
721.328	208.53
721.51	113.56
721.693	60.24
721.875	8.78
722.058	-87.3
722.24	204.46
722.423	286.47
722.605	8.78
722.788	114.11
722.97	378.1
723.153	39.32
723.335	37.29
723.518	510.84
723.7	980.5
723.882	846.29
724.065	918.67
724.247	979.76
724.429	1066.4
724.612	925.15
724.794	490.66
724.976	747.25
725.159	620.62
725.341	419.2
725.523	339.97
725.705	426.79
725.888	868.69
726.07	260.73
726.252	14.52
726.434	241.3
726.616	311.46
726.798	-85.27
726.98	190.02
727.162	121.15
727.345	466.97
727.527	56.36
727.709	-5.66
727.891	376.81
728.073	288.13
728.255	86.9
728.437	275.91
728.619	95.97
728.801	274.62
728.982	7.67
729.164	-1.4
729.346	269.44
729.528	352.74
729.71	-57.31
729.892	9.15
730.074	363.48
730.255	379.59
730.437	107.45
730.619	102.08
730.801	838.7
730.983	182.98
731.164	170.95
731.346	259.25
731.528	167.25
731.709	296.65
731.891	-50.28
732.073	36.55
732.254	504.55
732.436	187.42
732.617	32.47
732.799	209.45
732.981	255.92
733.162	278.69
733.344	11.74
733.525	147.62
733.707	468.26
733.888	299.06
734.07	240.93
734.251	473.81
734.433	1363.72
734.614	2519.83
734.795	3514.7
734.977	4290.74
735.158	4966.82
735.34	5632.54
735.521	4896.29
735.702	3992.51
735.883	3533.58
736.065	2785.67
736.246	2302.3
736.427	1979.26
736.609	1991.11
736.79	1425.36
736.971	1175.81
737.152	1086.58
737.333	1203.58
737.514	994.94
737.696	989.21
737.877	538.98
738.058	558.97
738.239	475.67
738.42	327.01
738.601	193.53
738.782	304.61
738.963	521.02
739.144	149.84
739.325	221.67
739.506	401.8
739.687	168.91
739.868	437.9
740.049	266.66
740.23	396.8
740.411	409.02
740.592	197.24
740.773	-33.99
740.953	337.93
741.134	197.24
741.315	68.39
741.496	124.11
741.677	183.17
741.857	275.73
742.038	-72.86
742.219	50.25
742.4	218.9
742.58	35.07
742.761	84.31
742.942	88.01
743.122	207.23
743.303	163.54
743.484	2.85
743.664	108.93
743.845	303.5
744.025	329.79
744.206	148.55
744.386	129.48
744.567	-34.36
744.748	315.53
744.928	236.48
745.108	250.55
745.289	121.15
745.469	213.34
745.65	279.43
745.83	26.18
746.011	303.87
746.191	834.81
746.371	1454.06
746.552	3443.79
746.732	5110.48
746.912	6814.57
747.093	7525.27
747.273	8184.32
747.453	8403.88
747.633	8944.63
747.814	8311.68
747.994	8577.89
748.174	8944.81
748.354	8599.74
748.534	7703.91
748.715	6363.05
748.895	5819.52
749.075	4631.93
749.255	4316.66
749.435	3579.3
749.615	3582.45
749.795	3088.72
749.975	2557.78
750.155	2165.13
750.335	2007.58
750.515	1789.51
750.695	1439.43
750.875	1190.25
751.055	1126.75
751.235	733.73
751.415	640.61
751.595	339.23
751.775	670.05
751.954	313.13
752.134	310.35
752.314	352.74
752.494	493.25
752.674	137.63
752.854	308.31
753.033	50.25
753.213	94.68
753.393	71.54
753.572	131.15
753.752	-7.7
753.932	192.05
754.111	133.55
754.291	149.47
754.471	121.33
754.65	205.01
754.83	172.98
755.01	125.78
755.189	108.75
755.369	63.76
755.548	298.32
755.728	155.4
755.907	207.05
756.087	139.85
756.266	529.72
756.446	-59.9
756.625	27.48
756.804	962.92
756.984	70.43
757.163	100.97
757.343	61.91
757.522	-100.63
757.701	124.85
757.881	237.04
758.06	-35.47
758.239	135.22
758.418	415.31
758.598	285.36
758.777	277.4
758.956	324.6
759.135	467.15
759.315	1244.68
759.494	4126.72
759.673	7981.42
759.852	10931.59
760.031	13108.67
760.21	14758.88
760.389	15126.17
760.568	13639.43
760.748	10692.77
760.927	8639.73
761.106	7239.99
761.285	6281.78
761.464	5256.36
761.643	4958.86
761.822	4615.46
762	4219.66
762.179	3498.4
762.358	3341.97
762.537	3111.31
762.716	2826.03
762.895	2487.99
763.074	2246.95
763.253	2099.78
763.431	1339.46
763.61	1163.59
763.789	780.75
763.968	508.25
764.147	561.56
764.325	333.49
764.504	268.51
764.683	211.68
764.861	383.47
765.04	142.44
765.219	71.91
765.397	199.09
765.576	502.32
765.755	274.06
765.933	74.68
766.112	406.61
766.29	188.54
766.469	-7.33
766.647	120.22
766.826	160.03
767.004	248.52
767.183	288.87
767.361	187.61
767.54	593.41
767.718	539.9
767.897	67.28
768.075	137.63
768.253	764.09
768.432	2287.12
768.61	3258.11
768.788	4018.98
768.967	4936.65
769.145	5107.34
769.323	5144.55
769.501	4167.08
769.68	3337.72
769.858	3061.14
770.036	2308.97
770.214	2318.41
770.393	1957.97
770.571	1843.56
770.749	1459.8
770.927	1228.76
771.105	1744.33
771.283	1275.6
771.461	1170.07
771.639	1163.96
771.817	1025.86
771.995	834.07
772.173	858.69
772.351	653.57
772.529	794.08
772.707	765.2
772.885	293.87
773.063	354.04
773.241	602.29
773.419	210.01
773.597	159.66
773.775	-4.92
773.953	185.94
774.131	138.74
774.308	270.36
774.486	142.07
774.664	293.13
774.842	185.2
775.02	206.12
775.197	234.08
775.375	349.6
775.553	64.5
775.73	81.53
775.908	204.83
776.086	357
776.263	252.96
776.441	269.44
776.619	-141.73
776.796	151.88
776.974	291.1
777.151	20.63
777.329	10.07
777.506	469.37
777.684	35.07
777.861	104.67
778.039	81.16
778.216	453.64
778.394	391.43
778.571	170.58
778.749	-60.46
778.926	165.02
779.103	160.77
779.281	109.49
779.458	169.65
779.635	293.87
779.813	280.54
779.99	86.16
780.167	5.08
780.345	498.81
780.522	535.28
780.699	-11.22
780.876	-26.95
781.054	248.52
781.231	112.45
781.408	224.82
781.585	86.16
781.762	68.57
781.939	118.56
782.116	68.2
782.294	134.85
782.471	-41.02
782.648	85.61
782.825	42.66
783.002	94.12
783.179	230.93
783.356	-26.21
783.533	54.87
783.71	60.98
783.887	361.81
784.064	342.75
784.24	15.63
784.417	35.07
784.594	172.8
784.771	189.46
784.948	293.69
785.125	-71.57
785.302	168.73
785.478	803.52
785.655	24.14
785.832	-111.18
786.009	239.63
786.185	182.06
786.362	210.57
786.539	-38.24
786.715	863.69
786.892	263.51
787.069	244.44
787.245	131.7
787.422	171.32
787.599	333.49
787.775	122.82
787.952	23.4
788.128	448.82
788.305	224.08
788.481	109.86
788.658	-56.57
788.834	313.68
789.011	44.32
789.187	169.1
789.364	-51.2
789.54	542.13
789.717	366.81
789.893	-144.51
790.069	83.38
790.246	89.49
790.422	354.78
790.598	376.44
790.775	969.58
790.951	1785.43
791.127	2029.24
791.304	2173.64
791.48	2303.42
791.656	2546.86
791.832	2317.12
792.008	1812.09
792.185	1629.93
792.361	1612.9
792.537	1473.5
792.713	1318.36
792.889	1213.95
793.065	1358.16
793.241	1171.55
793.417	1048.63
793.593	710.41
793.769	1005.87
793.945	722.99
794.121	734.84
794.297	752.06
794.473	779.46
794.649	985.13
794.825	571.93
795.001	492.33
795.177	219.82
795.353	573.41
795.529	310.53
795.705	317.01
795.881	301.65
796.056	324.79
796.232	242.78
796.408	484.37
796.584	709.11
796.76	1139.71
796.935	1203.4
797.111	1494.41
797.287	1955.75
797.462	2887.3
797.638	3204.98
797.814	3313.83
797.989	3706.12
798.165	4050.64
798.341	4134.68
798.516	3448.79
798.692	3251.63
798.867	2973.94
799.043	2611.28
799.218	2517.98
799.394	2257.69
799.569	2754.38
799.745	1960.38
799.92	1865.41
800.096	1862.08
800.271	1800.24
800.447	1779.69
800.622	1451.1
800.797	1157.3
800.973	1018.83
801.148	1143.6
801.323	1132.49
801.499	775.2
801.674	674.86
801.849	802.04
802.025	572.3
802.2	864.8
802.375	550.46
802.55	443.45
802.725	59.5
802.901	274.62
803.076	307.76
803.251	148.55
803.426	120.41
803.601	401.62
803.776	-2.88
803.951	8.04
804.127	49.69
804.302	160.77
804.477	186.13
804.652	338.49
804.827	-32.32
805.002	-2.88
805.177	267.21
805.352	292.39
805.526	203.53
805.701	615.81
805.876	401.62
806.051	289.43
806.226	668.75
806.401	1357.98
806.576	1690.83
806.751	1975.19
806.925	2264.91
807.1	2807.33
807.275	3035.4
807.45	3767.39
807.625	5460.74
807.799	6328.43
807.974	6993.03
808.149	7288.68
808.323	7915.14
808.498	7805.55
808.673	7143.35
808.847	6053.7
809.022	5759.35
809.197	5740.65
809.371	5003.66
809.546	4855.19
809.72	4389.6
809.895	4355.91
810.069	3644.28
810.244	3861.25
810.418	3347.71
810.593	3617.81
810.767	3224.6
810.942	2856.57
811.116	2743.28
811.29	2459.48
811.465	2148.28
811.639	2041.09
811.814	2010.73
811.988	1914.84
812.162	1391.48
812.337	869.8
812.511	792.79
812.685	648.76
812.859	465.11
813.034	346.63
813.208	358.67
813.382	124.3
813.556	397.17
813.73	251.48
813.905	42.66
814.079	181.32
814.253	301.28
814.427	307.39
814.601	-13.62
814.775	287.02
814.949	88.38
815.123	240
815.297	3.22
815.471	70.8
815.645	132.44
815.819	105.6
815.993	161.88
816.167	170.76
816.341	199.27
816.515	196.87
816.689	-137.1
816.863	217.6
817.037	153.73
817.21	179.28
817.384	90.42
817.558	278.14
817.732	530.65
817.906	156.14
818.079	-108.41
818.253	424.94
818.427	-28.43
818.601	167.43
818.774	271.84
818.948	190.94
819.122	528.43
819.295	141.88
819.469	82.64
819.643	225.19
819.816	89.86
819.99	153.73
820.163	-20.47
820.337	83.38
820.511	466.22
820.684	149.29
820.858	180.76
821.031	18.59
821.205	213.71
821.378	162.8
821.551	133.92
821.725	316.27
821.898	174.65
822.072	162.99
822.245	328.49
822.418	453.45
822.592	263.7
822.765	407.35
822.938	806.67
823.112	765.2
823.285	1128.24
823.458	789.27
823.631	829.81
823.805	950.7
823.978	984.58
824.151	675.79
824.324	773.72
824.497	895.35
824.671	785.57
824.844	677.82
825.017	549.35
825.19	254.44
825.363	277.4
825.536	533.06
825.709	474.56
825.882	592.11
826.055	516.76
826.228	138
826.401	330.53
826.574	426.42
826.747	468.26
826.92	429.94
827.093	288.69
827.266	491.59
827.439	310.72
827.612	120.04
827.785	35.99
827.957	257.96
828.13	215.75
828.303	80.61
828.476	81.16
828.649	58.39
828.821	463.26
828.994	155.21
829.167	25.62
829.34	572.3
829.512	317.75
829.685	293.87
829.858	149.1
830.03	369.03
830.203	479.18
830.375	212.05
830.548	112.45
830.721	265.18
830.893	108.38
831.066	106.15
831.238	72.09
831.411	576.56
831.583	233.34
831.756	246.67
831.928	3.41
832.101	229.26
832.273	236.3
832.446	44.32
832.618	110.41
832.79	309.42
832.963	-21.03
833.135	71.54
833.307	93.94
833.48	408.47
833.652	173.17
833.824	248.15
833.997	118.56
834.169	292.76
834.341	208.71
834.513	27.29
834.686	3.96
834.858	315.35
835.03	246.29
835.202	-46.94
835.374	-5.11
835.546	376.25
835.718	95.05
835.891	146.88
836.063	43.95
836.235	256.29
836.407	153.18
836.579	259.25
836.751	-45.09
836.923	340.89
837.095	619.32
837.267	563.42
837.439	774.27
837.611	878.69
837.782	1161.37
837.954	1135.83
838.126	1142.31
838.298	1574.02
838.47	1626.04
838.642	1209.14
838.814	1492.19
838.985	1673.25
839.157	1887.25
839.329	1986.29
839.501	2508.91
839.672	2287.87
839.844	2752.53
840.016	2290.46
840.188	2346.92
840.359	2364.88
840.531	2051.09
840.702	1845.6
840.874	2255.28
841.046	1805.43
841.217	1793.21
841.389	1663.62
841.56	1617.89
841.732	1296.33
841.903	1477.57
842.075	1121.57
842.246	1112.5
842.418	1399.63
842.589	1070.29
842.761	936.07
842.932	882.39
843.104	1227.09
843.275	878.87
843.446	534.91
843.618	396.62
843.789	696.71
843.96	88.57
844.132	269.81
844.303	271.1
844.474	189.09
844.646	325.71
844.817	-67.31
844.988	69.31
845.159	602.29
845.331	434.75
845.502	-20.84
845.673	98.93
845.844	-155.06
846.015	433.64
846.186	75.98
846.357	77.46
846.528	227.78
846.7	1
846.871	64.13
847.042	67.46
847.213	327.75
847.384	997.35
847.555	177.98
847.726	-25.84
847.897	432.16
848.067	-66.2
848.238	184.09
848.409	163.91
848.58	464.19
848.751	378.85
848.922	277.58
849.093	436.42
849.264	566.93
849.434	753.91
849.605	436.79
849.776	381.44
849.947	407.17
850.117	557.86
850.288	663.75
850.459	349.6
850.63	775.57
850.8	755.95
850.971	586.93
851.142	317.38
851.312	52.65
851.483	276.47
851.653	353.67
851.824	309.61
851.995	376.44
852.165	706.89
852.336	220.75
852.506	279.43
852.677	643.02
852.847	474.93
853.018	245
853.188	146.33
853.358	565.64
853.529	558.97
853.699	151.14
853.87	146.88
854.04	-41.39
854.21	192.61
854.381	115.04
854.551	162.06
854.721	163.91
854.892	278.51
855.062	-144.69
855.232	-47.32
855.402	321.27
855.573	250.18
855.743	194.27
855.913	5.45
856.083	139.48
856.253	290.91
856.423	-75.45
856.594	1.19
856.764	335.71
856.934	230
857.104	36.18
857.274	151.7
857.444	99.49
857.614	96.53
857.784	137.44
857.954	-41.58
858.124	25.07
858.294	-36.95
858.464	191.87
858.634	-79.53
858.804	342.93
858.974	-3.63
859.143	-29.17
859.313	-110.63
859.483	317.75
859.653	-25.66
859.823	3.96
859.993	-67.49
860.162	314.79
860.332	361.44
860.502	18.4
860.672	182.06
860.841	372.18
861.011	160.95
861.181	-58.42
861.35	249.44
861.52	168.54
861.69	207.6
861.859	84.68
862.029	-34.17
862.198	164.84
862.368	222.6
862.538	-56.76
862.707	41.73
862.877	310.16
863.046	322.38
863.216	-106.74
863.385	133.37
863.555	290.35
863.724	493.62
863.893	109.67
864.063	288.13
864.232	667.83
864.402	185.57
864.571	103.56
864.74	110.6
864.91	43.77
865.079	412.54
865.248	205.57
865.418	282.21
865.587	352.37
865.756	306.65
865.925	133.74
866.094	221.86
866.264	453.08
866.433	211.86
866.602	210.38
866.771	-2.33
866.94	332.01
867.109	120.04
867.278	96.34
867.448	95.23
867.617	134.66
867.786	443.08
867.955	67.83
868.124	-3.81
868.293	243.7
868.462	83.94
868.631	75.42
868.8	150.4
868.969	185.2
869.137	327.57
869.306	71.17
869.475	68.39
869.644	103.56
869.813	39.69
869.982	57.84
870.151	-31.58
870.319	180.2
870.488	177.24
870.657	25.62
870.826	-54.54
870.995	97.08
871.163	142.25
871.332	10.44
871.501	66.72
871.669	110.23
871.838	378.29
872.007	187.79
872.175	-6.96
872.344	78.76
872.512	-145.25
872.681	139.29
872.85	203.9
873.018	160.58
873.187	-54.72
873.355	329.42
873.524	-60.83
873.692	255.18
873.861	289.06
874.029	-15.1
874.197	160.77
874.366	460.3
874.534	217.23
874.703	-113.96
874.871	84.68
875.039	45.99
875.208	112.08
875.376	134.11
875.544	288.87
875.713	285.73
875.881	218.16
876.049	57.65
876.217	73.76
876.386	299.43
876.554	310.16
876.722	101.71
876.89	140.22
877.058	258.7
877.226	217.6
877.395	-16.4
877.563	21.37
877.731	118.93
877.899	123.93
878.067	-49.17
878.235	4.52
878.403	115.78
878.571	155.21
878.739	50.43
878.907	225.56
879.075	387.73
879.243	126.52
879.411	-81.93
879.579	-71.94
879.747	237.41
879.914	137.44
880.082	15.26
880.25	-28.99
880.418	269.62
880.586	-3.81
880.754	117.63
880.921	147.25
881.089	126.89
881.257	278.69
881.425	52.28
881.592	53.21
881.76	164.47
881.928	550.46
882.095	94.68
882.263	120.96
882.431	118
882.598	610.62
882.766	-28.62
882.933	48.21
883.101	24.51
883.269	133
883.436	53.39
883.604	105.97
883.771	573.23
883.939	51.17
884.106	-151.17
884.273	278.51
884.441	213.53
884.608	94.12
884.776	275.73
884.943	269.81
885.11	17.48
885.278	53.58
885.445	-25.47
885.613	168.17
885.78	76.9
885.947	114.86
886.114	287.21
886.282	201.86
886.449	187.61
886.616	334.04
886.783	-14.92
886.951	12.3
887.118	2.85
887.285	503.06
887.452	19.89
887.619	-8.25
887.786	-198.38
887.953	113.19
888.12	-43.24
888.287	178.54
888.455	423.65
888.622	125.78
888.789	79.13
888.956	68.76
889.123	53.76
889.29	62.46
889.456	85.42
889.623	56.91
889.79	208.16
889.957	371.07
890.124	40.43
890.291	87.46
890.458	190.76
890.625	481.4
890.791	107.82
890.958	49.88
891.125	421.79
891.292	258.33
891.459	-20.29
891.625	173.91
891.792	310.72
891.959	-132.29
892.125	-12.88
892.292	-35.1
892.459	217.04
892.625	406.24
892.792	177.8
892.959	-91.56
893.125	756.69
893.292	-24.36
893.458	162.99
893.625	178.17
893.791	258.51
893.958	57.65
894.124	164.28
894.291	-1.96
894.457	216.12
894.624	213.34
894.79	46.54
894.957	85.24
895.123	254.81
895.289	241.11
895.456	226.3
895.622	40.06
895.788	263.7
895.955	114.67
896.121	223.71
896.287	278.69
896.454	180.58
896.62	107.45
896.786	77.83
896.952	205.75
897.119	340.71
897.285	352.19
897.451	12.11
897.617	205.2
897.783	329.6
897.949	79.68
898.115	46.91
898.281	-24.73
898.448	540.83
898.614	132.26
898.78	13.22
898.946	128.92
899.112	537.87
899.278	-23.06
899.444	38.03
899.61	275.17
899.775	223.89
899.941	248.15
900.107	88.38
900.273	163.91
900.439	278.14
900.605	249.44
900.771	89.49
900.937	94.68
901.102	494.55
901.268	363.85
901.434	48.02
901.6	200.01
901.766	309.98
901.931	504.18
902.097	136.7
902.263	149.66
902.428	410.69
902.594	15.63
902.76	64.87
902.925	75.05
903.091	433.27
903.256	98.19
903.422	240.93
903.588	-63.24
903.753	129.67
903.919	366.44
904.084	136.89
904.25	95.42
904.415	641.17
904.581	173.73
904.746	267.58
904.912	123.93
905.077	207.23
905.242	-12.51
905.408	49.69
905.573	64.69
905.738	218.71
905.904	1354.27
906.069	1354.27
