Data from FLMT087451__10__13-55-36-535.txt Node

Date: Tue Jun 04 13:55:36 JST 2024
User: power
Spectrometer: FLMT08745
Trigger mode: 0
Integration Time (sec): 8.000000E-3
Scans to average: 11
Electric dark correction enabled: true
Nonlinearity correction enabled: false
Boxcar width: 0
XAxis mode: Wavelengths
Number of Pixels in Spectrum: 3648
>>>>>Begin Spectral Data<<<<<
194.923	6.56
195.148	6.56
195.372	6.56
195.597	-19.55
195.821	-22.32
196.046	8.04
196.271	-2.14
196.495	-25.66
196.72	-0.48
196.944	-25.1
197.169	24.7
197.393	-0.11
197.618	13.04
197.842	-11.77
198.067	0.08
198.291	-2.14
198.516	21.55
198.74	15.07
198.964	-18.99
199.189	4.52
199.413	11.37
199.637	0.63
199.862	-1.03
200.086	2.67
200.31	24.88
200.535	-4.37
200.759	-3.44
200.983	16.37
201.207	9.7
201.432	-5.11
201.656	20.81
201.88	-3.63
202.104	20.44
202.328	16.74
202.552	19.7
202.777	3.96
203.001	-6.03
203.225	7.85
203.449	3.78
203.673	1.74
203.897	-15.66
204.121	-9.92
204.345	33.03
204.569	-7.7
204.793	11.93
205.017	-10.48
205.241	12.11
205.465	-4.37
205.689	15.07
205.912	-14.73
206.136	3.78
206.36	2.48
206.584	15.63
206.808	6.37
207.032	9.7
207.255	-14.73
207.479	26.37
207.703	0.26
207.927	9.52
208.15	4.52
208.374	0.26
208.598	-8.81
208.822	8.04
209.045	-4.37
209.269	21.74
209.492	5.08
209.716	9.7
209.94	3.96
210.163	26.18
210.387	10.44
210.61	20.07
210.834	-0.11
211.057	10.07
211.281	-12.51
211.504	7.11
211.728	-14.36
211.951	22.48
212.175	-7.7
212.398	8.59
212.622	14.7
212.845	11.74
213.068	-3.26
213.292	18.96
213.515	2.11
213.738	14.33
213.962	4.34
214.185	6.93
214.408	16
214.631	11.18
214.855	-12.14
215.078	4.52
215.301	9.7
215.524	28.77
215.747	-11.77
215.971	9.33
216.194	4.15
216.417	10.63
216.64	25.62
216.863	39.51
217.086	8.96
217.309	16
217.532	-3.26
217.755	29.88
217.978	-13.62
218.201	6.93
218.424	1.93
218.647	4.34
218.87	13.59
219.093	-5.11
219.316	7.3
219.539	29.51
219.762	10.26
219.985	19.7
220.207	10.07
220.43	18.77
220.653	10.07
220.876	14.89
221.099	-0.11
221.321	24.33
221.544	8.96
221.767	16.92
221.99	2.85
222.212	0.08
222.435	13.96
222.658	15.81
222.88	-9.18
223.103	16.55
223.326	1.37
223.548	35.81
223.771	7.85
223.993	20.81
224.216	22.29
224.438	14.52
224.661	13.59
224.883	16.18
225.106	16.18
225.328	3.41
225.551	2.67
225.773	12.67
225.996	-8.81
226.218	12.48
226.44	8.22
226.663	21.92
226.885	14.89
227.108	-8.81
227.33	23.77
227.552	29.33
227.774	-2.51
227.997	24.14
228.219	5.63
228.441	25.81
228.663	15.44
228.886	26.55
229.108	35.44
229.33	1.19
229.552	-5.66
229.774	13.59
229.996	17.66
230.219	40.99
230.441	-20.47
230.663	21.37
230.885	24.88
231.107	4.34
231.329	20.81
231.551	32.29
231.773	1.37
231.995	25.62
232.217	5.63
232.439	24.14
232.661	14.15
232.883	28.22
233.105	-8.81
233.326	5.82
233.548	9.89
233.77	20.26
233.992	24.14
234.214	15.07
234.436	1.56
234.657	-2.14
234.879	-0.48
235.101	1.93
235.323	3.41
235.544	14.89
235.766	15.44
235.988	32.29
236.21	9.52
236.431	-2.88
236.653	-6.22
236.874	7.85
237.096	13.41
237.318	48.02
237.539	16.37
237.761	16
237.982	-13.25
238.204	29.88
238.425	4.34
238.647	14.33
238.868	2.11
239.09	18.96
239.311	-3.81
239.533	26.74
239.754	28.96
239.975	8.96
240.197	-6.59
240.418	11.74
240.64	-8.62
240.861	17.11
241.082	-1.59
241.304	15.07
241.525	4.52
241.746	7.3
241.967	7.85
242.189	33.96
242.41	0.08
242.631	17.48
242.852	6.56
243.073	28.4
243.294	8.41
243.516	25.07
243.737	4.52
243.958	28.03
244.179	10.81
244.4	11.74
244.621	9.33
244.842	13.22
245.063	31.55
245.284	13.96
245.505	-5.29
245.726	19.33
245.947	19.7
246.168	8.96
246.389	-21.77
246.61	7.85
246.831	-4.92
247.052	16.55
247.272	1.74
247.493	34.14
247.714	40.43
247.935	12.11
248.156	-4.55
248.376	14.89
248.597	28.03
248.818	21.55
249.039	-11.59
249.259	21
249.48	6.56
249.701	-11.22
249.921	-11.22
250.142	3.96
250.363	28.22
250.583	15.63
250.804	16.18
251.025	27.66
251.245	9.7
251.466	9.7
251.686	11
251.907	24.7
252.127	9.15
252.348	3.96
252.568	16.18
252.789	37.1
253.009	-0.85
253.23	25.99
253.45	8.59
253.67	34.7
253.891	-3.07
254.111	16.74
254.331	6.93
254.552	18.22
254.772	34.14
254.992	19.33
255.213	1
255.433	19.52
255.653	10.81
255.873	27.29
256.093	3.78
256.314	37.29
256.534	10.81
256.754	42.84
256.974	10.26
257.194	33.4
257.414	-4.37
257.634	15.81
257.855	5.26
258.075	35.81
258.295	4.15
258.515	5.26
258.735	5.08
258.955	34.14
259.175	13.41
259.395	9.89
259.615	-8.44
259.835	8.41
260.054	-25.29
260.274	17.29
260.494	1.19
260.714	25.99
260.934	-0.11
261.154	12.11
261.374	-12.7
261.593	-3.07
261.813	-2.88
262.033	2.3
262.253	5.08
262.472	21.55
262.692	11.18
262.912	-2.7
263.132	27.29
263.351	0.45
263.571	6
263.791	10.81
264.01	-5.11
264.23	34.14
264.449	-5.48
264.669	44.32
264.888	4.89
265.108	-7.14
265.328	-10.85
265.547	31.36
265.767	-2.88
265.986	15.44
266.205	3.59
266.425	17.11
266.644	-1.22
266.864	32.1
267.083	18.96
267.303	10.81
267.522	9.33
267.741	24.88
267.961	19.15
268.18	27.11
268.399	19.52
268.618	12.85
268.838	9.33
269.057	36.36
269.276	5.26
269.495	40.99
269.715	13.41
269.934	-17.51
270.153	13.78
270.372	1.37
270.591	6.56
270.81	36.36
271.029	14.89
271.249	1.19
271.468	18.22
271.687	24.51
271.906	7.85
272.125	17.29
272.344	15.07
272.563	23.03
272.782	7.3
273.001	6
273.22	9.15
273.439	11.55
273.657	0.82
273.876	13.96
274.095	-2.7
274.314	14.33
274.533	-5.48
274.752	15.81
274.971	-1.59
275.189	11.37
275.408	27.48
275.627	29.7
275.846	13.59
276.064	18.4
276.283	6
276.502	19.7
276.72	21.92
276.939	18.4
277.158	-28.62
277.376	32.29
277.595	7.85
277.814	-1.22
278.032	28.77
278.251	28.03
278.469	22.66
278.688	38.21
278.906	21.37
279.125	17.29
279.343	5.45
279.562	16
279.78	-13.25
279.999	9.52
280.217	12.48
280.435	-3.07
280.654	9.33
280.872	6.19
281.091	-5.48
281.309	19.89
281.527	32.84
281.746	27.29
281.964	2.85
282.182	18.59
282.4	5.08
282.619	33.77
282.837	22.48
283.055	6.56
283.273	11
283.491	18.03
283.71	23.4
283.928	21.37
284.146	-9.73
284.364	18.03
284.582	-10.48
284.8	16
285.018	-3.44
285.236	9.15
285.454	19.15
285.672	11.55
285.89	13.96
286.108	21.74
286.326	16.37
286.544	31.73
286.762	26.37
286.98	23.59
287.198	10.07
287.416	19.15
287.634	14.33
287.851	9.7
288.069	17.66
288.287	33.03
288.505	3.96
288.723	20.07
288.94	7.85
289.158	40.62
289.376	21.18
289.594	43.58
289.811	16.74
290.029	10.44
290.247	40.99
290.464	30.62
290.682	34.51
290.9	74.13
291.117	80.42
291.335	147.07
291.552	152.07
291.77	162.43
291.987	208.34
292.205	207.97
292.422	210.38
292.64	225.93
292.857	198.16
293.075	177.98
293.292	165.76
293.51	187.98
293.727	173.36
293.945	212.97
294.162	195.94
294.379	186.5
294.597	153.55
294.814	136.7
295.031	63.02
295.249	44.69
295.466	41.18
295.683	28.03
295.9	14.33
296.118	25.25
296.335	16.18
296.552	35.44
296.769	5.45
296.986	27.48
297.204	12.11
297.421	14.7
297.638	21
297.855	29.51
298.072	13.96
298.289	45.06
298.506	27.66
298.723	34.33
298.94	36.18
299.157	65.8
299.374	3.22
299.591	59.69
299.808	20.26
300.025	18.22
300.242	38.58
300.459	40.25
300.676	47.1
300.893	41.18
301.109	30.81
301.326	35.62
301.543	63.58
301.76	38.4
301.977	31.55
302.193	51.91
302.41	49.88
302.627	41.92
302.844	46.36
303.06	82.64
303.277	68.94
303.494	55.99
303.71	54.5
303.927	63.76
304.144	84.86
304.36	123.19
304.577	95.6
304.793	142.07
305.01	174.47
305.227	200.38
305.443	261.1
305.66	335.53
305.876	430.5
306.093	550.64
306.309	730.03
306.526	923.67
306.742	1062.7
306.958	1277.26
307.175	1454.43
307.391	1682.87
307.608	1916.13
307.824	2213.26
308.04	2410.79
308.257	2526.31
308.473	2473.73
308.689	2499.28
308.905	2553.34
309.122	2923.77
309.338	3479.71
309.554	4562.88
309.77	5512.58
309.986	6285.11
310.203	6251.23
310.419	6065.18
310.635	5394.47
310.851	4812.24
311.067	4686.54
311.283	5269.51
311.499	6375.45
311.715	8110.45
311.931	10371.4
312.147	12576.06
312.363	13525.57
312.579	13082.75
312.795	11581.56
313.011	9088.66
313.227	5975.02
313.443	3724.81
313.659	2177.53
313.875	1127.31
314.091	570.27
314.307	373.85
314.523	259.25
314.738	258.14
314.954	204.46
315.17	210.94
315.386	194.64
315.602	182.8
315.817	148.36
316.033	158.73
316.249	145.59
316.465	166.14
316.68	162.06
316.896	173.73
317.112	130.59
317.327	142.25
317.543	128.55
317.758	130.22
317.974	112.26
318.19	122.63
318.405	103.38
318.621	148.92
318.836	114.11
319.052	116.89
319.267	112.82
319.483	120.04
319.698	111.71
319.914	123.93
320.129	109.49
320.344	133.92
320.56	138.92
320.775	181.87
320.99	192.05
321.206	246.67
321.421	317.01
321.636	412.54
321.852	502.51
322.067	680.79
322.282	914.97
322.498	1222.28
322.713	1490.71
322.928	1896.14
323.143	2164.39
323.358	2302.68
323.574	2289.72
323.789	2246.58
324.004	2038.87
324.219	2014.62
324.434	2159.76
324.649	2424.49
324.864	2575
325.079	2635.53
325.294	2470.21
325.509	2265.09
325.724	1806.17
325.939	1438.14
326.154	1151.93
326.369	1061.4
326.584	968.66
326.799	1052.89
327.014	1231.17
327.229	1319.29
327.444	1409.44
327.659	1390
327.873	1325.76
328.088	1162.3
328.303	991.61
328.518	864.25
328.733	807.04
328.947	846.47
329.162	904.05
329.377	1043.26
329.591	1253.57
329.806	1481.83
330.021	1789.32
330.235	2059.05
330.45	2200.86
330.665	2427.27
330.879	2553.89
331.094	2698.66
331.309	3088.35
331.523	3787.2
331.738	4774.29
331.952	6401.74
332.167	8693.97
332.381	11521.58
332.596	15295.38
332.81	20005.73
333.025	25572.65
333.239	32446.2
333.453	37503.84
333.668	38936.9
333.882	38327.65
334.097	34383.91
334.311	26925
334.525	18908.67
334.74	12217.29
334.954	7506.75
335.168	4137.27
335.382	2103.11
335.597	1009.94
335.811	631.17
336.025	462.34
336.239	423.65
336.453	365.89
336.668	322.57
336.882	293.5
337.096	302.39
337.31	279.43
337.524	280.91
337.738	271.1
337.952	245.18
338.166	240.74
338.38	265.18
338.594	225.93
338.808	222.04
339.022	231.3
339.236	228.15
339.45	230.74
339.664	264.07
339.878	229.82
340.092	251.48
340.306	263.33
340.52	286.47
340.734	287.58
340.948	322.01
341.161	324.6
341.375	354.22
341.589	343.49
341.803	366.81
342.017	325.34
342.23	315.53
342.444	300.91
342.658	316.83
342.871	330.16
343.085	357.37
343.299	379.96
343.512	406.43
343.726	420.5
343.94	487.7
344.153	471.96
344.367	510.84
344.58	500.47
344.794	600.63
345.008	700.96
345.221	917.19
345.435	1118.79
345.648	1372.05
345.862	1706.57
346.075	2148.28
346.288	2507.79
346.502	2797.33
346.715	2766.6
346.929	2659.04
347.142	2397.46
347.355	2089.41
347.569	1970.37
347.782	1993.33
347.995	2054.05
348.209	2356.73
348.422	2711.62
348.635	3234.97
348.848	3988.43
349.062	5005.15
349.275	6069.81
349.488	7460.84
349.701	9345.06
349.914	11398.1
350.128	13419.68
350.341	14262.37
350.554	14120.01
350.767	12925.39
350.98	10816.44
351.193	8842.81
351.406	7090.04
351.619	5850.25
351.832	5153.62
352.045	4969.23
352.258	5284.69
352.471	6158.67
352.684	7605.24
352.897	9538.7
353.11	12099.55
353.323	15469.03
353.536	18879.6
353.748	23974.83
353.961	28640.75
354.174	31851.57
354.387	32010.78
354.6	30181.92
354.813	25058
355.025	18854.06
355.238	13433.75
355.451	9230.83
355.664	5783.05
355.876	3385.29
356.089	1827.83
356.302	1011.24
356.514	620.62
356.727	475.48
356.94	372
357.152	377.92
357.365	314.61
357.577	330.9
357.79	296.09
358.002	321.83
358.215	303.87
358.427	322.38
358.64	327.01
358.852	387.55
359.065	391.8
359.277	435.31
359.49	470.11
359.702	600.44
359.915	644.87
360.127	785.38
360.339	901.27
360.552	1076.96
360.764	1125.09
360.976	1111.57
361.189	1098.24
361.401	1013.27
361.613	919.23
361.825	825.55
362.038	792.6
362.25	877.2
362.462	980.13
362.674	1193.21
362.886	1440.73
363.099	1728.41
363.311	2188.27
363.523	2543.71
363.735	2709.4
363.947	2720.88
364.159	2595.17
364.371	2189.19
364.583	1758.4
364.795	1466.83
365.007	1209.51
365.219	1103.06
365.431	998.09
365.643	1046.04
365.855	1161.74
366.067	1465.91
366.279	1910.39
366.491	2483.17
366.703	3094.27
366.914	3870.51
367.126	4801.32
367.338	5777.12
367.55	6385.08
367.762	6518.74
367.974	6166.44
368.185	5402.43
368.397	4199.29
368.609	3348.08
368.82	2657.75
369.032	2160.5
369.244	1824.49
369.456	1685.28
369.667	1686.95
369.879	1957.23
370.09	2234.55
370.302	2813.44
370.514	3331.79
370.725	4097.84
370.937	4924.62
371.148	6053.7
371.36	7345.88
371.571	8905.75
371.783	10851.43
371.994	12078.81
372.206	12425.55
372.417	11666.54
372.629	10386.21
372.84	8071.2
373.051	5933.92
373.263	4333.88
373.474	3161.66
373.685	2226.96
373.897	1606.97
374.108	1329.1
374.319	1234.13
374.531	1376.12
374.742	1534.96
374.953	1911.87
375.164	2303.23
375.375	2829.36
375.587	3431.94
375.798	4264.09
376.009	5172.68
376.22	6381.56
376.431	7600.24
376.642	9478.9
376.853	11032.3
377.065	11787.61
377.276	11696.53
377.487	10716.1
377.698	8673.6
377.909	6656.29
378.12	4839.64
378.331	3485.26
378.542	2418.93
378.753	1552.73
378.964	989.95
379.174	646.35
379.385	432.16
379.596	443.08
379.807	404.39
380.018	452.53
380.229	477.52
380.44	537.31
380.65	591.37
380.861	731.88
381.072	792.6
381.283	971.8
381.493	1149.34
381.704	1379.82
381.915	1601.6
382.126	1849.86
382.336	1912.24
382.547	1950.94
382.757	1787.1
382.968	1587.35
383.179	1327.99
383.389	1170.26
383.6	1046.59
383.81	983.28
384.021	914.41
384.231	969.4
384.442	1075.47
384.652	1326.32
384.863	1598.83
385.073	1837.64
385.284	2159.76
385.494	2500.76
385.705	2944.51
385.915	3235.53
386.125	3404.36
386.336	3283.1
386.546	3032.81
386.756	2659.97
386.967	2224.55
387.177	1927.79
387.387	1750.44
387.598	1638.63
387.808	1631.59
388.018	1681.39
388.228	1615.67
388.439	1599.2
388.649	1505.15
388.859	1404.26
389.069	1404.81
389.279	1541.25
389.489	1663.62
389.699	1938.9
389.909	2205.67
390.12	2638.12
390.33	3134.82
390.54	3873.47
390.75	4178.93
390.96	4368.13
391.17	4226.32
391.38	3791.27
391.59	3047.99
391.799	2384.32
392.009	1879.66
392.219	1405
392.429	1058.63
392.639	831.85
392.849	663.94
393.059	576.74
393.269	545.83
393.478	593.22
393.688	683.56
393.898	768.17
394.108	907.75
394.317	1095.84
394.527	1280.22
394.737	1525.52
394.947	1806.17
395.156	2104.41
395.366	2521.68
395.576	2900.63
395.785	3451.57
395.995	4216.14
396.204	4878.7
396.414	5072.9
396.624	5066.24
396.833	4596.2
397.043	3824.23
397.252	3036.51
397.462	2263.24
397.671	1753.04
397.881	1256.53
398.09	881.28
398.299	605.25
398.509	456.78
398.718	311.64
398.928	304.61
399.137	295.54
399.346	331.27
399.556	353.11
399.765	433.64
399.974	457.89
400.184	578.78
400.393	663.38
400.602	825.92
400.811	925.52
401.021	1124.53
401.23	1294.48
401.439	1532.18
401.648	1787.47
401.857	2135.69
402.066	2554.08
402.276	3056.51
402.485	3179.99
402.694	3266.26
402.903	3066.51
403.112	2678.11
403.321	2111.44
403.53	1702.13
403.739	1320.58
403.948	1088.25
404.157	874.98
404.366	743.91
404.575	705.04
404.784	690.04
404.993	734.84
405.202	846.47
405.411	981.06
405.619	1174.33
405.828	1292.81
406.037	1406.85
406.246	1363.9
406.455	1286.7
406.663	1067.14
406.872	886.28
407.081	724.11
407.29	626.36
407.498	479.92
407.707	406.8
407.916	352.19
408.124	342.19
408.333	320.9
408.542	351.26
408.75	367.74
408.959	466.78
409.168	556.2
409.376	715.96
409.585	798.16
409.793	957.55
410.002	1024.94
410.21	1303.36
410.419	1532.74
410.627	1737.67
410.836	1765.44
411.044	1762.66
411.253	1564.21
411.461	1275.97
411.669	1020.31
411.878	843.33
412.086	653.02
412.294	548.79
412.503	436.05
412.711	382.18
412.919	307.76
413.128	325.34
413.336	287.02
413.544	358.85
413.752	338.3
413.961	374.22
414.169	406.98
414.377	488.81
414.585	546.38
414.793	630.06
415.001	758.17
415.209	875.35
415.418	981.25
415.626	1138.6
415.834	1278
416.042	1464.79
416.25	1730.27
416.458	1985.74
416.666	2076.27
416.874	2112.18
417.082	1995.74
417.29	1737.49
417.498	1404.07
417.706	1145.27
417.913	923.49
418.121	776.5
418.329	568.04
418.537	493.44
418.745	381.81
418.953	347.56
419.161	312.2
419.368	297.57
419.576	276.1
419.784	352
419.992	393.1
420.199	430.5
420.407	474.93
420.615	502.51
420.822	510.28
421.03	531.94
421.238	558.6
421.445	606.74
421.653	626.91
421.861	729.1
422.068	793.34
422.276	886.83
422.483	1022.16
422.691	1175.63
422.898	1297.81
423.106	1574.94
423.313	1813.94
423.521	1902.99
423.728	1899.66
423.936	1815.98
424.143	1611.41
424.35	1400.56
424.558	1174.15
424.765	979.39
424.973	787.23
425.18	598.22
425.387	437.53
425.594	322.94
425.802	276.84
426.009	195.01
426.216	123.93
426.424	129.85
426.631	111.52
426.838	97.45
427.045	94.68
427.252	94.68
427.459	114.49
427.667	122.26
427.874	147.81
428.081	163.91
428.288	187.05
428.495	229.82
428.702	249.81
428.909	291.84
429.116	303.87
429.323	382.18
429.53	404.21
429.737	481.96
429.944	562.68
430.151	616.18
430.358	712.07
430.565	871.28
430.772	982.54
430.979	1117.87
431.185	1175.44
431.392	1179.15
431.599	1155.63
431.806	1136.57
432.013	1105.28
432.219	1045.85
432.426	982.17
432.633	877.02
432.84	730.58
433.046	583.78
433.253	439.94
433.46	368.85
433.666	276.29
433.873	232.78
434.08	180.58
434.286	168.17
434.493	126.89
434.7	118
434.906	107.64
435.113	93.2
435.319	107.64
435.526	103.01
435.732	152.44
435.939	186.31
436.145	175.95
436.352	252.96
436.558	259.81
436.765	332.75
436.971	364.41
437.177	417.17
437.384	479.37
437.59	556.94
437.796	657.09
438.003	756.13
438.209	792.97
438.415	797.79
438.622	750.02
438.828	627.28
439.034	529.54
439.24	446.6
439.447	359.78
439.653	278.51
439.859	258.88
440.065	197.98
440.271	139.29
440.477	126.15
440.683	106.34
440.89	123.56
441.096	121.7
441.302	162.8
441.508	133
441.714	142.62
441.92	138.92
442.126	152.62
442.332	158.17
442.538	163.54
442.744	184.28
442.95	219.27
443.156	225.01
443.361	292.39
443.567	276.1
443.773	302.76
443.979	334.6
444.185	356.63
444.391	393.28
444.596	429.2
444.802	513.25
445.008	570.08
445.214	663.01
445.42	748.91
445.625	763.17
445.831	751.5
446.037	690.04
446.242	573.78
446.448	459
446.654	403.28
446.859	316.64
447.065	270.92
447.27	185.39
447.476	174.47
447.682	137.81
447.887	114.49
448.093	94.31
448.298	89.68
448.504	87.83
448.709	107.27
448.915	87.27
449.12	111.71
449.325	95.97
449.531	97.64
449.736	85.05
449.942	97.64
450.147	94.68
450.352	99.67
450.558	96.71
450.763	149.84
450.968	139.66
451.174	142.07
451.379	125.78
451.584	165.95
451.789	206.49
451.995	208.9
452.2	227.6
452.405	260.92
452.61	286.1
452.815	341.82
453.02	342.56
453.226	378.1
453.431	405.32
453.636	501.58
453.841	497.51
454.046	559.9
454.251	513.25
454.456	497.51
454.661	421.05
454.866	343.12
455.071	277.21
455.276	248.52
455.481	201.86
455.686	187.98
455.891	142.99
456.095	115.97
456.3	82.27
456.505	117.63
456.71	112.45
456.915	110.04
457.12	112.45
457.324	102.82
457.529	80.24
457.734	95.42
457.939	107.27
458.144	109.12
458.348	96.53
458.553	103.19
458.758	98.38
458.962	140.77
459.167	119.67
459.372	153.92
459.576	168.91
459.781	176.69
459.985	192.42
460.19	267.4
460.394	278.88
460.599	323.31
460.803	321.27
461.008	379.4
461.212	437.53
461.417	472.52
461.621	465.48
461.826	471.41
462.03	427.9
462.235	424.76
462.439	375.88
462.643	357.74
462.848	337.01
463.052	359.59
463.256	320.72
463.461	282.76
463.665	248.7
463.869	239.63
464.074	176.32
464.278	174.84
464.482	134.11
464.686	141.51
464.89	104.86
465.095	105.41
465.299	87.27
465.503	115.78
465.707	82.46
465.911	108.01
466.115	91.71
466.319	118.37
466.523	134.66
466.727	157.06
466.931	167.06
467.135	178.72
467.339	190.02
467.543	240.74
467.747	263.33
467.951	272.77
468.155	282.76
468.359	353.3
468.563	372.37
468.767	398.65
468.971	381.44
469.175	401.06
469.379	345.15
469.582	306.46
469.786	227.23
469.99	228.34
470.194	158.55
470.397	164.84
470.601	125.22
470.805	137.81
471.009	101.53
471.212	127.26
471.416	102.08
471.62	123.37
471.823	118.56
472.027	130.04
472.23	110.23
472.434	95.05
472.638	115.41
472.841	104.49
473.045	92.27
473.248	117.45
473.452	81.16
473.655	108.75
473.859	128.74
474.062	98.38
474.266	95.42
474.469	113.93
474.672	100.97
474.876	108.38
475.079	112.08
475.283	134.48
475.486	104.86
475.689	157.25
475.893	158.36
476.096	170.02
476.299	127.63
476.502	195.76
476.706	182.06
476.909	243.89
477.112	238.33
477.315	259.81
477.519	296.46
477.722	363.48
477.925	343.3
478.128	411.98
478.331	366.07
478.534	323.12
478.737	276.29
478.94	248.52
479.143	207.42
479.346	186.31
479.549	153.36
479.752	143.18
479.955	93.94
480.158	113.74
480.361	87.27
480.564	95.6
480.767	69.68
480.97	87.83
481.173	70.61
481.376	77.46
481.579	49.69
481.782	99.3
481.984	65.24
482.187	100.05
482.39	99.49
482.593	102.64
482.796	95.23
482.998	119.11
483.201	118.37
483.404	113.93
483.606	108.75
483.809	133
484.012	115.6
484.214	132.81
484.417	144.29
484.62	151.51
484.822	140.77
485.025	142.81
485.227	160.77
485.43	169.84
485.632	172.8
485.835	205.2
486.037	190.39
486.24	192.42
486.442	220.38
486.645	215.93
486.847	215.38
487.05	248.52
487.252	247.78
487.455	264.81
487.657	289.06
487.859	332.75
488.062	347.37
488.264	366.07
488.466	342.75
488.668	341.45
488.871	299.43
489.073	273.69
489.275	251.66
489.477	232.23
489.68	240.37
489.882	202.79
490.084	169.65
490.286	165.21
490.488	143.55
490.69	133.37
490.893	125.96
491.095	141.14
491.297	149.66
491.499	162.99
491.701	124.11
491.903	160.58
492.105	159.47
492.307	161.69
492.509	155.21
492.711	179.28
492.913	184.83
493.115	194.46
493.317	173.73
493.518	218.34
493.72	241.3
493.922	280.17
494.124	240.37
494.326	267.4
494.528	239.63
494.73	226.3
494.931	175.95
495.133	189.28
495.335	150.77
495.537	157.25
495.738	110.78
495.94	138.92
496.142	104.49
496.343	130.22
496.545	118.37
496.747	123.93
496.948	115.41
497.15	122.82
497.351	124.67
497.553	143.73
497.755	135.22
497.956	165.02
498.158	152.81
498.359	193.53
498.561	176.13
498.762	196.5
498.964	197.61
499.165	232.97
499.366	197.05
499.568	231.48
499.769	210.01
499.971	256.11
500.172	255.55
500.373	255.18
500.575	230.56
500.776	216.12
500.977	209.45
501.178	213.16
501.38	252.96
501.581	268.88
501.782	234.45
501.983	289.8
502.185	268.7
502.386	268.88
502.587	273.51
502.788	331.27
502.989	309.98
503.19	342.56
503.391	317.38
503.593	345.71
503.794	319.79
503.995	326.45
504.196	325.53
504.397	304.24
504.598	275.17
504.799	279.25
505	235.19
505.201	216.86
505.402	199.09
505.602	192.61
505.803	163.54
506.004	189.09
506.205	172.06
506.406	173.91
506.607	148.73
506.808	162.25
507.008	145.22
507.209	155.95
507.41	149.29
507.611	148.36
507.812	154.29
508.012	169.1
508.213	156.14
508.414	151.33
508.614	151.33
508.815	184.46
509.016	172.43
509.216	160.77
509.417	182.43
509.617	200.57
509.818	201.31
510.019	222.23
510.219	213.71
510.42	201.12
510.62	210.57
510.821	255.92
511.021	227.41
511.222	266.47
511.422	253.88
511.623	268.7
511.823	308.13
512.023	313.13
512.224	309.05
512.424	332.75
512.624	331.45
512.825	382.55
513.025	393.28
513.225	414.57
513.426	409.21
513.626	454.93
513.826	455.67
514.026	476.59
514.227	485.66
514.427	504.92
514.627	492.7
514.827	507.51
515.027	519.36
515.228	515.1
515.428	473.63
515.628	445.12
515.828	417.54
516.028	420.13
516.228	412.35
516.428	397.73
516.628	357
516.828	364.96
517.028	357.56
517.228	360.89
517.428	329.05
517.628	371.25
517.828	353.67
518.028	362
518.228	350.34
518.428	329.97
518.627	303.31
518.827	280.73
519.027	255.74
519.227	259.99
519.427	231.48
519.626	209.82
519.826	217.97
520.026	175.76
520.226	177.24
520.425	177.61
520.625	131.7
520.825	183.17
521.024	166.14
521.224	173.73
521.424	143.55
521.623	135.77
521.823	130.41
522.023	136.7
522.222	107.64
522.422	154.84
522.621	86.16
522.821	140.4
523.02	107.64
523.22	131.15
523.419	128.37
523.619	137.81
523.818	103.38
524.017	135.59
524.217	143.18
524.416	140.22
524.616	139.66
524.815	134.48
525.014	133.74
525.214	137.81
525.413	123.37
525.612	145.4
525.812	126.33
526.011	136.7
526.21	140.4
526.409	171.32
526.608	170.02
526.808	184.09
527.007	166.14
527.206	202.79
527.405	177.24
527.604	212.42
527.803	209.82
528.003	231.67
528.202	219.27
528.401	211.68
528.6	200.57
528.799	196.87
528.998	189.65
529.197	190.2
529.396	174.65
529.595	202.61
529.794	191.13
529.993	226.49
530.192	231.85
530.39	257.77
530.589	273.14
530.788	289.43
530.987	279.99
531.186	350.34
531.385	342.19
531.583	383.1
531.782	401.62
531.981	431.79
532.18	454.75
532.379	481.4
532.577	458.63
532.776	512.51
532.975	510.28
533.173	536.39
533.372	540.83
533.571	539.16
533.769	564.71
533.968	592.48
534.166	569.34
534.365	560.27
534.564	564.71
534.762	582.85
534.961	555.46
535.159	574.89
535.358	573.97
535.556	567.86
535.755	583.78
535.953	554.9
536.151	584.15
536.35	571.38
536.548	560.82
536.747	547.87
536.945	587.85
537.143	594.7
537.342	590.26
537.54	587.67
537.738	568.97
537.937	567.3
538.135	540.46
538.333	526.02
538.531	554.53
538.73	542.87
538.928	520.28
539.126	529.35
539.324	492.51
539.522	487.88
539.72	492.88
539.919	501.21
540.117	498.81
540.315	523.8
540.513	538.42
540.711	505.66
540.909	515.47
541.107	513.25
541.305	514.17
541.503	489.37
541.701	464.93
541.899	480.48
542.097	504.55
542.295	501.4
542.493	486.4
542.691	521.76
542.888	508.62
543.086	492.33
543.284	467.89
543.482	538.42
543.68	496.59
543.878	477.15
544.075	483.44
544.273	512.69
544.471	488.62
544.669	511.95
544.866	484.18
545.064	461.97
545.262	409.02
545.459	410.32
545.657	401.8
545.855	372.74
546.052	365.7
546.25	377.73
546.447	356.26
546.645	372
546.842	352.19
547.04	389.77
547.238	370.88
547.435	375.14
547.633	347.56
547.83	387.18
548.027	376.07
548.225	381.81
548.422	381.99
548.62	393.47
548.817	375.51
549.014	389.58
549.212	377.36
549.409	371.81
549.606	317.01
549.804	329.79
550.001	315.72
550.198	293.32
550.396	257.22
550.593	256.66
550.79	243.89
550.987	227.41
551.184	247.04
551.382	242.04
551.579	204.09
551.776	230.74
551.973	218.9
552.17	234.08
552.367	210.94
552.564	217.23
552.761	207.79
552.958	218.53
553.155	227.78
553.353	229.45
553.55	222.78
553.746	240.37
553.943	242.59
554.14	233.89
554.337	216.86
554.534	214.08
554.731	195.57
554.928	211.68
555.125	199.46
555.322	206.49
555.519	181.87
555.715	198.16
555.912	170.02
556.109	157.06
556.306	158.73
556.503	178.17
556.699	156.51
556.896	149.84
557.093	158.55
557.289	149.47
557.486	131.33
557.683	136.89
557.879	147.62
558.076	145.96
558.273	117.63
558.469	109.67
558.666	123.93
558.862	133.37
559.059	122.45
559.255	118.93
559.452	99.12
559.648	118.74
559.845	76.16
560.041	118
560.238	88.75
560.434	90.42
560.631	80.61
560.827	113.37
561.023	88.75
561.22	88.94
561.416	77.46
561.612	111.52
561.809	66.35
562.005	80.61
562.201	70.43
562.398	110.6
562.594	86.72
562.79	101.34
562.986	104.3
563.182	79.87
563.379	82.83
563.575	96.9
563.771	74.31
563.967	113.74
564.163	79.5
564.359	99.67
564.555	92.64
564.751	100.97
564.947	101.9
565.144	134.29
565.34	111.34
565.536	129.11
565.732	116.71
565.928	130.59
566.123	138.18
566.319	141.33
566.515	150.03
566.711	174.28
566.907	182.8
567.103	205.38
567.299	197.05
567.495	237.96
567.691	269.25
567.886	304.05
568.082	302.2
568.278	376.07
568.474	422.53
568.669	489.74
568.865	522.13
569.061	628.4
569.257	666.16
569.452	746.32
569.648	817.96
569.844	930.34
570.039	920.34
570.235	983.84
570.43	1012.9
570.626	1045.48
570.822	1082.88
571.017	1098.43
571.213	1163.04
571.408	1157.67
571.604	1194.7
571.799	1207.47
571.995	1198.77
572.19	1166.37
572.385	1118.79
572.581	1120.28
572.776	1040.49
572.972	1049.19
573.167	989.58
573.362	975.69
573.558	982.17
573.753	1014.38
573.948	1050.11
574.144	1117.31
574.339	1158.6
574.534	1219.69
574.729	1267.45
574.925	1327.06
575.12	1347.24
575.315	1376.3
575.51	1377.23
575.705	1422.96
575.9	1457.76
576.096	1493.3
576.291	1476.27
576.486	1522.74
576.681	1516.07
576.876	1500.34
577.071	1432.95
577.266	1447.39
577.461	1346.31
577.656	1287.81
577.851	1194.88
578.046	1168.96
578.241	1131.57
578.436	1107.5
578.631	1066.96
578.826	1091.58
579.021	1079.18
579.215	1161.56
579.41	1176.55
579.605	1217.1
579.8	1243.94
579.995	1264.3
580.189	1266.34
580.384	1282.82
580.579	1280.41
580.774	1335.39
580.968	1322.8
581.163	1390.74
581.358	1360.57
581.552	1427.95
581.747	1366.31
581.942	1369.64
582.136	1306.7
582.331	1285.59
582.526	1182.66
582.72	1103.43
582.915	1042.15
583.109	994.94
583.304	1001.05
583.498	966.99
583.693	937.37
583.887	951.07
584.082	952.18
584.276	1029.75
584.471	971.99
584.665	1071.22
584.859	1081.03
585.054	1118.05
585.248	1091.58
585.442	1136.01
585.637	1123.42
585.831	1146.75
586.025	1170.07
586.22	1217.65
586.414	1166.19
586.608	1204.14
586.802	1211.17
586.997	1228.94
587.191	1172.48
587.385	1134.53
587.579	1050.3
587.773	1011.61
587.967	944.41
588.162	876.46
588.356	809.08
588.55	802.97
588.744	772.24
588.938	780.38
589.132	738.55
589.326	792.23
589.52	798.71
589.714	810.37
589.908	835.55
590.102	898.68
590.296	928.3
590.49	912.56
590.684	918.12
590.877	926.45
591.071	925.52
591.265	963.66
591.459	979.58
591.653	975.32
591.847	987.72
592.04	986.24
592.234	987.72
592.428	992.17
592.622	948.66
592.815	922.38
593.009	856.66
593.203	808.15
593.397	742.06
593.59	700.22
593.784	660.79
593.977	660.61
594.171	617.66
594.365	607.66
594.558	624.51
594.752	658.39
594.945	650.05
595.139	696.89
595.332	692.08
595.526	762.06
595.719	762.61
595.913	781.86
596.106	763.54
596.3	767.61
596.493	784.46
596.687	820.93
596.88	807.04
597.073	805.19
597.267	821.67
597.46	855.54
597.653	850.92
597.847	847.4
598.04	774.27
598.233	800.19
598.426	745.76
598.62	678.56
598.813	639.32
599.006	605.44
599.199	546.38
599.392	536.02
599.586	522.87
599.779	500.47
599.972	523.06
600.165	528.61
600.358	521.02
600.551	536.76
600.744	573.97
600.937	591
601.13	617.47
601.323	630.99
601.516	640.24
601.709	640.98
601.902	650.05
602.095	622.29
602.288	666.35
602.481	682.08
602.674	664.49
602.867	683.01
603.06	714.85
603.252	701.7
603.445	655.42
603.638	674.31
603.831	635.43
604.024	561.38
604.216	525.46
604.409	500.84
604.602	453.82
604.795	444.01
604.987	407.54
605.18	382.55
605.373	383.29
605.565	351.08
605.758	331.82
605.951	338.3
606.143	317.94
606.336	356.07
606.528	323.86
606.721	333.12
606.913	340.71
607.106	349.6
607.298	322.75
607.491	343.86
607.683	323.49
607.876	347.56
608.068	356.63
608.261	388.1
608.453	372.92
608.646	370.14
608.838	364.22
609.03	394.03
609.223	387.73
609.415	393.47
609.607	335.53
609.8	359.41
609.992	326.27
610.184	340.89
610.376	289.06
610.569	330.9
610.761	277.4
610.953	284.06
611.145	288.69
611.337	283.13
611.529	336.64
611.722	333.49
611.914	334.23
612.106	334.41
612.298	356.82
612.49	379.77
612.682	389.4
612.874	373.85
613.066	377.55
613.258	402.91
613.45	383.47
613.642	375.88
613.834	379.59
614.026	403.1
614.218	383.1
614.41	405.32
614.602	376.62
614.793	396.8
614.985	409.76
615.177	369.03
615.369	364.03
615.561	387.92
615.753	329.23
615.944	323.31
616.136	302.2
616.328	304.05
616.52	298.87
616.711	286.65
616.903	295.72
617.095	260.73
617.286	274.06
617.478	289.06
617.67	288.13
617.861	361.63
618.053	364.41
618.244	405.5
618.436	440.12
618.627	468.63
618.819	482.33
619.01	539.16
619.202	554.71
619.393	604.14
619.585	609.33
619.776	622.47
619.968	585.63
620.159	633.21
620.351	583.04
620.542	635.43
620.733	633.58
620.925	638.76
621.116	630.06
621.307	638.39
621.499	624.69
621.69	600.63
621.881	601
622.072	602.29
622.264	546.75
622.455	533.98
622.646	511.03
622.837	461.97
623.028	420.5
623.22	440.86
623.411	426.05
623.602	397.73
623.793	409.76
623.984	414.39
624.175	414.39
624.366	429.75
624.557	433.83
624.748	461.6
624.939	500.66
625.13	557.49
625.321	612.29
625.512	660.98
625.703	670.6
625.894	730.77
626.085	764.65
626.276	804.45
626.467	789.64
626.658	839.81
626.848	824.81
627.039	854.99
627.23	841.48
627.421	887.02
627.612	886.46
627.802	898.86
627.993	884.61
628.184	892.57
628.375	866.47
628.565	905.71
628.756	827.04
628.947	835.92
629.137	788.16
629.328	780.2
629.519	656.9
629.709	670.23
629.9	616.36
630.09	610.99
630.281	545.09
630.471	547.49
630.662	516.58
630.852	510.65
631.043	479.55
631.233	516.76
631.424	495.66
631.614	558.42
631.805	567.3
631.995	613.96
632.185	669.68
632.376	717.07
632.566	778.9
632.756	878.69
632.947	860.91
633.137	952.18
633.327	941.44
633.518	984.02
633.708	1024.75
633.898	1014.75
634.088	1017.72
634.279	1027.53
634.469	1070.48
634.659	1095.28
634.849	1084.18
635.039	1074.55
635.229	1092.14
635.42	1072.88
635.61	1068.44
635.8	1062.33
635.99	1031.41
636.18	978.84
636.37	932.56
636.56	892.94
636.75	817.04
636.94	763.35
637.13	696.71
637.32	686.15
637.51	660.42
637.7	644.13
637.89	610.99
638.079	598.77
638.269	576.19
638.459	591.18
638.649	607.85
638.839	653.39
639.029	643.21
639.218	709.85
639.408	729.66
639.598	818.15
639.788	875.17
639.977	982.17
640.167	1023.82
640.357	1069
640.546	1133.97
640.736	1178.59
640.926	1182.66
641.115	1200.8
641.305	1213.39
641.495	1223.58
641.684	1221.54
641.874	1270.41
642.063	1264.86
642.253	1285.04
642.442	1287.26
642.632	1257.64
642.821	1300.22
643.011	1282.82
643.2	1251.71
643.39	1199.88
643.579	1185.99
643.768	1117.68
643.958	1040.67
644.147	969.4
644.336	894.05
644.526	860.73
644.715	810.19
644.904	805.75
645.094	732.81
645.283	714.85
645.472	672.08
645.661	654.13
645.851	672.46
646.04	698
646.229	684.49
646.418	729.29
646.607	778.16
646.796	841.48
646.986	884.24
647.175	989.02
647.364	1027.16
647.553	1143.05
647.742	1213.95
647.931	1292.26
648.12	1350.76
648.309	1403.7
648.498	1400.74
648.687	1477.75
648.876	1396.67
649.065	1469.05
649.254	1441.28
649.443	1495.34
649.632	1504.04
649.82	1557.17
650.009	1494.6
650.198	1545.51
650.387	1502.93
650.576	1503.49
650.765	1459.8
650.953	1480.35
651.142	1385.38
651.331	1362.79
651.52	1268.38
651.708	1128.98
651.897	1076.96
652.086	1034.19
652.274	961.62
652.463	910.34
652.652	842.4
652.84	815
653.029	765.76
653.217	768.17
653.406	722.62
653.594	755.21
653.783	764.09
653.972	813.52
654.16	853.14
654.349	916.82
654.537	976.99
654.725	1088.25
654.914	1135.09
655.102	1265.6
655.291	1313.36
655.479	1444.43
655.667	1523.85
655.856	1616.41
656.044	1629.19
656.232	1687.5
656.421	1662.51
656.609	1750.26
656.797	1698.42
656.986	1759.52
657.174	1736
657.362	1816.72
657.55	1828.94
657.738	1874.48
657.927	1802.09
658.115	1844.86
658.303	1821.16
658.491	1852.63
658.679	1822.27
658.867	1787.65
659.055	1731.19
659.243	1624.93
659.431	1479.23
659.619	1432.03
659.807	1265.41
659.995	1236.53
660.183	1154.15
660.371	1077.51
660.559	1040.67
660.747	980.88
660.935	912.19
661.123	864.25
661.311	816.3
661.499	850.73
661.687	810
661.875	857.95
662.062	841.48
662.25	916.45
662.438	961.25
662.626	1010.31
662.813	1068.25
663.001	1193.96
663.189	1177.48
663.377	1255.97
663.564	1375.56
663.752	1444.8
663.94	1460.35
664.127	1540.51
664.315	1502
664.502	1563.84
664.69	1485.53
664.878	1524.03
665.065	1498.3
665.253	1520.89
665.44	1491.27
665.628	1576.61
665.815	1565.69
666.003	1540.88
666.19	1514.78
666.378	1503.49
666.565	1506.26
666.752	1485.9
666.94	1448.5
667.127	1426.1
667.315	1325.39
667.502	1239.31
667.689	1096.21
667.877	1026.42
668.064	945.7
668.251	904.05
668.438	778.53
668.626	745.58
668.813	701.15
669	660.79
669.187	570.64
669.374	570.82
669.562	503.81
669.749	511.58
669.936	492.14
670.123	529.17
670.31	518.43
670.497	556.57
670.684	536.39
670.871	607.29
671.058	621.18
671.245	684.12
671.432	720.4
671.619	760.2
671.806	777.98
671.993	843.33
672.18	864.99
672.367	912.75
672.554	889.61
672.741	925.89
672.928	894.61
673.115	898.31
673.302	910.34
673.488	912.01
673.675	902.38
673.862	928.11
674.049	899.6
674.235	922.56
674.422	871.47
674.609	902.01
674.796	859.99
674.982	874.24
675.169	857.03
675.356	866.84
675.542	797.79
675.729	780.38
675.916	693.37
676.102	673.94
676.289	566.19
676.475	528.8
676.662	484.74
676.848	445.68
677.035	391.43
677.221	363.85
677.408	348.48
677.594	305.54
677.781	274.43
677.967	241.11
678.154	204.27
678.34	241.3
678.526	189.65
678.713	206.86
678.899	208.16
679.085	242.04
679.272	223.15
679.458	243.15
679.644	234.63
679.831	270.36
680.017	274.62
680.203	307.94
680.389	306.83
680.576	302.76
680.762	308.13
680.948	356.44
681.134	333.3
681.32	322.38
681.506	314.24
681.692	327.75
681.879	311.27
682.065	329.6
682.251	319.05
682.437	310.16
682.623	340.34
682.809	341.45
682.995	277.58
683.181	327.57
683.367	302.2
683.553	309.42
683.739	307.02
683.924	309.05
684.11	274.8
684.296	306.65
684.482	262.03
684.668	254.81
684.854	200.57
685.04	200.75
685.225	142.07
685.411	155.03
685.597	134.85
685.783	134.11
685.968	113.74
686.154	80.98
686.34	82.46
686.526	94.12
686.711	48.95
686.897	78.02
687.083	51.17
687.268	64.69
687.454	43.03
687.639	67.09
687.825	40.25
688.01	46.54
688.196	46.54
688.382	59.32
688.567	46.36
688.752	63.76
688.938	43.95
689.123	64.69
689.309	54.32
689.494	45.99
689.68	48.58
689.865	65.8
690.05	46.54
690.236	54.32
690.421	24.33
690.606	49.69
690.792	62.46
690.977	81.53
691.162	53.76
691.348	77.27
691.533	49.14
691.718	53.39
691.903	54.13
692.089	48.02
692.274	59.13
692.459	57.28
692.644	56.54
692.829	72.09
693.014	45.43
693.199	68.76
693.384	46.17
693.569	70.61
693.755	49.14
693.94	51.91
694.125	32.47
694.31	63.58
694.495	57.47
694.68	58.39
694.864	57.1
695.049	76.16
695.234	54.13
695.419	65.98
695.604	69.5
695.789	79.68
695.974	86.53
696.159	106.34
696.344	68.02
696.528	86.16
696.713	80.42
696.898	98.93
697.083	90.05
697.267	85.24
697.452	83.38
697.637	91.53
697.822	89.31
698.006	114.67
698.191	87.46
698.375	97.08
698.56	110.04
698.745	89.68
698.929	83.94
699.114	124.67
699.298	78.39
699.483	103.38
699.668	82.27
699.852	113.37
700.037	66.91
700.221	88.38
700.405	78.39
700.59	94.49
700.774	54.5
700.959	75.79
701.143	89.86
701.328	124.11
701.512	68.94
701.696	61.91
701.881	60.43
702.065	96.9
702.249	88.2
702.433	106.34
702.618	90.97
702.802	90.05
702.986	78.02
703.17	138.37
703.355	50.99
703.539	96.9
703.723	96.53
703.907	98.01
704.091	80.61
704.275	101.34
704.46	89.12
704.644	71.72
704.828	65.8
705.012	79.31
705.196	85.42
705.38	76.72
705.564	93.94
705.748	89.49
705.932	86.35
706.116	120.22
706.3	94.86
706.484	81.16
706.668	88.2
706.851	102.27
707.035	97.64
707.219	109.67
707.403	119.85
707.587	147.07
707.771	127.44
707.954	144.85
708.138	128.92
708.322	151.14
708.506	151.14
708.689	162.99
708.873	158.17
709.057	184.65
709.241	171.87
709.424	200.2
709.608	198.72
709.792	192.24
709.975	198.53
710.159	188.17
710.342	166.88
710.526	189.65
710.709	170.58
710.893	200.38
711.077	188.72
711.26	218.16
711.443	205.38
711.627	216.12
711.81	170.76
711.994	198.72
712.177	188.54
712.361	203.35
712.544	198.9
712.727	210.38
712.911	179.65
713.094	175.02
713.277	141.88
713.461	173.54
713.644	154.84
713.827	177.06
714.011	153.55
714.194	140.59
714.377	130.22
714.56	143.73
714.743	135.77
714.927	130.22
715.11	118.74
715.293	119.11
715.476	129.48
715.659	120.04
715.842	113.37
716.025	130.04
716.208	118.37
716.391	152.99
716.575	133.92
716.758	145.96
716.941	120.78
717.124	180.2
717.306	174.1
717.489	206.49
717.672	197.24
717.855	214.82
718.038	209.64
718.221	243.15
718.404	255.74
718.587	275.73
718.77	294.8
718.952	318.12
719.135	338.3
719.318	358.48
719.501	350.71
719.684	391.62
719.866	412.35
720.049	431.61
720.232	424.94
720.414	461.78
720.597	437.9
720.78	451.23
720.962	438.09
721.145	468.82
721.328	441.79
721.51	449.38
721.693	437.72
721.875	457.34
722.058	459.37
722.24	474.37
722.423	471.96
722.605	484.92
722.788	447.16
722.97	485.66
723.153	443.64
723.335	432.9
723.518	464
723.7	448.45
723.882	428.27
724.065	433.09
724.247	381.07
724.429	383.47
724.612	337.38
724.794	331.82
724.976	289.98
725.159	303.87
725.341	275.36
725.523	290.54
725.705	266.29
725.888	257.03
726.07	241.48
726.252	245.92
726.434	251.29
726.616	233.71
726.798	211.68
726.98	237.78
727.162	214.27
727.345	268.32
727.527	216.49
727.709	265.18
727.891	258.33
728.073	310.16
728.255	293.69
728.437	288.13
728.619	297.2
728.801	345.89
728.982	332.38
729.164	375.7
729.346	392.73
729.528	420.87
729.71	448.64
729.892	514.17
730.074	507.14
730.255	561.01
730.437	591.93
730.619	623.21
730.801	667.46
730.983	660.42
731.164	675.6
731.346	723.55
731.528	724.85
731.709	731.51
731.891	706.15
732.073	726.14
732.254	687.27
732.436	688.56
732.617	684.3
732.799	723.18
732.981	720.4
733.162	712.44
733.344	705.22
733.525	783.9
733.707	696.15
733.888	733.18
734.07	739.47
734.251	694.11
734.433	695.04
734.614	634.13
734.795	664.86
734.977	674.68
735.158	607.48
735.34	627.84
735.521	582.48
735.702	522.5
735.883	478.81
736.065	452.71
736.246	411.61
736.427	415.69
736.609	362.55
736.79	375.51
736.971	345.15
737.152	332.56
737.333	304.98
737.514	333.12
737.696	289.98
737.877	273.51
738.058	247.41
738.239	257.96
738.42	286.65
738.601	292.76
738.782	322.2
738.963	351.82
739.144	336.64
739.325	369.22
739.506	359.59
739.687	391.25
739.868	383.1
740.049	409.76
740.23	408.28
740.411	478.26
740.592	506.77
740.773	541.2
740.953	565.64
741.134	634.69
741.315	624.14
741.496	678.56
741.677	656.16
741.857	705.41
742.038	721.14
742.219	727.81
742.4	764.09
742.58	782.98
742.761	805.93
742.942	867.21
743.122	932.56
743.303	964.95
743.484	964.95
743.664	964.77
743.845	951.44
744.025	942.18
744.206	880.54
744.386	873.5
744.567	854.62
744.748	882.02
744.928	827.22
745.108	894.05
745.289	860.91
745.469	873.13
745.65	857.58
745.83	833.7
746.011	766.13
746.191	786.31
746.371	761.87
746.552	772.42
746.732	742.8
746.912	756.32
747.093	723.18
747.273	647.09
747.453	599.15
747.633	562.12
747.814	474.93
747.994	481.96
748.174	452.71
748.354	447.53
748.534	421.61
748.715	415.13
748.895	389.58
749.075	354.96
749.255	346.26
749.435	332.93
749.615	292.02
749.795	286.1
749.975	252.22
750.155	283.88
750.335	253.7
750.515	245.92
750.695	253.14
750.875	288.87
751.055	284.8
751.235	298.32
751.415	264.25
751.595	287.02
751.775	300.72
751.954	334.97
752.134	333.49
752.314	377.36
752.494	373.29
752.674	382.73
752.854	409.02
753.033	450.67
753.213	454.38
753.393	505.84
753.572	510.65
753.752	544.53
753.932	565.82
754.111	628.4
754.291	643.02
754.471	662.09
754.65	688.38
754.83	736.51
755.01	729.1
755.189	746.14
755.369	751.87
755.548	765.02
755.728	746.69
755.907	710.22
756.087	725.59
756.266	757.24
756.446	735.58
756.625	779.83
756.804	788.9
756.984	774.64
757.163	768.91
757.343	803.34
757.522	807.6
757.701	814.45
757.881	789.45
758.06	750.21
758.239	714.29
758.418	729.84
758.598	698
758.777	732.25
758.956	722.07
759.135	693.93
759.315	645.24
759.494	622.1
759.673	546.38
759.852	512.69
760.031	464.19
760.21	449.75
760.389	410.5
760.568	399.76
760.748	378.29
760.927	378.29
761.106	343.86
761.285	336.64
761.464	308.87
761.643	266.66
761.822	244.63
762	282.58
762.179	230.56
762.358	252.59
762.537	218.16
762.716	232.04
762.895	219.64
763.074	234.82
763.253	223.71
763.431	236.67
763.61	226.49
763.789	239.63
763.968	233.89
764.147	260.73
764.325	273.69
764.504	281.47
764.683	284.43
764.861	326.27
765.04	305.91
765.219	353.48
765.397	330.53
765.576	375.33
765.755	393.47
765.933	396.62
766.112	440.12
766.29	460.49
766.469	486.22
766.647	515.84
766.826	517.32
767.004	567.67
767.183	584.89
767.361	592.48
767.54	623.4
767.718	631.73
767.897	589.33
768.075	602.29
768.253	566.56
768.432	607.11
768.61	560.27
768.788	584.34
768.967	598.03
769.145	621.92
769.323	596.37
769.501	602.66
769.68	602.48
769.858	647.46
770.036	598.4
770.214	632.47
770.393	626.91
770.571	587.85
770.749	548.24
770.927	555.46
771.105	538.98
771.283	554.71
771.461	538.98
771.639	534.17
771.817	500.1
771.995	490.29
772.173	439.2
772.351	398.84
772.529	377.92
772.707	350.34
772.885	298.32
773.063	298.32
773.241	289.06
773.419	297.94
773.597	232.78
773.775	230.74
773.953	190.2
774.131	197.79
774.308	163.91
774.486	188.72
774.664	138
774.842	125.22
775.02	84.12
775.197	112.45
775.375	85.79
775.553	95.6
775.73	54.69
775.908	79.5
776.086	70.98
776.263	70.98
776.441	29.88
776.619	55.61
776.796	74.31
776.974	76.35
777.151	46.91
777.329	63.39
777.506	77.46
777.684	48.4
777.861	40.43
778.039	59.87
778.216	70.61
778.394	72.28
778.571	73.57
778.749	50.25
778.926	63.95
779.103	71.17
779.281	105.04
779.458	81.16
779.635	61.54
779.813	84.86
779.99	70.98
780.167	77.83
780.345	76.72
780.522	109.86
780.699	85.98
780.876	100.6
781.054	98.75
781.231	109.86
781.408	89.68
781.585	97.45
781.762	86.72
781.939	105.04
782.116	101.16
782.294	85.61
782.471	77.83
782.648	100.42
782.825	73.94
783.002	90.6
783.179	77.46
783.356	93.94
783.533	88.2
783.71	99.49
783.887	93.2
784.064	90.79
784.24	64.87
784.417	94.86
784.594	66.72
784.771	73.2
784.948	58.58
785.125	55.43
785.302	54.69
785.478	89.12
785.655	41.73
785.832	80.98
786.009	58.95
786.185	51.91
786.362	40.62
786.539	87.83
786.715	55.06
786.892	72.09
787.069	31.18
787.245	69.68
787.422	12.85
787.599	60.24
787.775	45.25
787.952	37.84
788.128	30.99
788.305	52.47
788.481	20.81
788.658	35.81
788.834	18.96
789.011	35.07
789.187	21.18
789.364	20.26
789.54	21.92
789.717	41.18
789.893	10.63
790.069	18.4
790.246	-0.29
790.422	29.7
790.598	12.48
790.775	40.8
790.951	8.96
791.127	24.33
791.304	4.15
791.48	33.21
791.656	25.25
791.832	39.51
792.008	29.33
792.185	32.84
792.361	6.37
792.537	33.03
792.713	30.99
792.889	23.96
793.065	23.96
793.241	32.84
793.417	34.33
793.593	11.55
793.769	21.18
793.945	26.92
794.121	18.59
794.297	33.58
794.473	31.18
794.649	65.98
794.825	52.65
795.001	71.54
795.177	29.33
795.353	52.47
795.529	23.96
795.705	74.68
795.881	49.51
796.056	78.76
796.232	41.73
796.408	75.98
796.584	33.4
796.76	58.76
796.935	49.14
797.111	52.28
797.287	48.21
797.462	88.01
797.638	31.36
797.814	74.5
797.989	29.33
798.165	42.84
798.341	45.06
798.516	52.28
798.692	69.13
798.867	58.95
799.043	35.99
799.218	78.39
799.394	59.5
799.569	94.31
799.745	41.55
799.92	66.35
800.096	32.66
800.271	39.51
800.447	68.02
800.622	52.28
800.797	42.47
800.973	81.16
801.148	36.18
801.323	41.18
801.499	33.96
801.674	38.21
801.849	19.89
802.025	53.39
802.2	42.47
802.375	46.36
802.55	41.55
802.725	27.29
802.901	30.81
803.076	50.43
803.251	21.37
803.426	35.81
803.601	19.15
803.776	33.21
803.951	25.81
804.127	46.17
804.302	9.89
804.477	23.4
804.652	28.59
804.827	25.81
805.002	7.3
805.177	36.18
805.352	5.08
805.526	30.62
805.701	19.52
805.876	21.74
806.051	29.51
806.226	28.4
806.401	3.04
806.576	18.22
806.751	-2.88
806.925	19.7
807.1	25.62
807.275	12.48
807.45	-5.29
807.625	30.44
807.799	17.11
807.974	23.77
808.149	-4.37
808.323	33.58
808.498	8.78
808.673	16.74
808.847	6.93
809.022	14.33
809.197	-0.29
809.371	24.14
809.546	13.41
809.72	24.14
809.895	9.7
810.069	35.99
810.244	14.33
810.418	1
810.593	3.96
810.767	24.14
810.942	26.37
811.116	35.44
811.29	2.48
811.465	31.18
811.639	11.37
811.814	28.77
811.988	8.59
812.162	29.88
812.337	32.1
812.511	32.29
812.685	9.33
812.859	7.48
813.034	35.99
813.208	23.96
813.382	-8.62
813.556	27.11
813.73	23.77
813.905	-5.11
814.079	-8.99
814.253	34.33
814.427	41.36
814.601	26.92
814.775	25.44
814.949	17.85
815.123	26.18
815.297	13.78
815.471	32.29
815.645	37.1
815.819	28.96
815.993	15.63
816.167	15.26
816.341	41.55
816.515	18.4
816.689	28.4
816.863	37.84
817.037	11
817.21	-6.03
817.384	35.62
817.558	39.88
817.732	59.5
817.906	30.99
818.079	47.65
818.253	47.65
818.427	55.24
818.601	60.43
818.774	75.42
818.948	44.51
819.122	48.4
819.295	55.61
819.469	46.54
819.643	50.8
819.816	35.99
819.99	44.88
820.163	40.43
820.337	12.85
820.511	45.8
820.684	35.25
820.858	63.02
821.031	25.99
821.205	21.92
821.378	28.22
821.551	34.14
821.725	22.85
821.898	27.11
822.072	25.25
822.245	50.99
822.418	22.85
822.592	9.33
822.765	-11.03
822.938	28.03
823.112	14.33
823.285	14.7
823.458	15.81
823.631	17.11
823.805	15.07
823.978	-11.77
824.151	16.55
824.324	13.59
824.497	18.59
824.671	15.81
824.844	6.56
825.017	25.25
825.19	-13.25
825.363	8.96
825.536	-7.14
825.709	32.29
825.882	9.33
826.055	22.29
826.228	-0.85
826.401	5.63
826.574	-3.07
826.747	16.37
826.92	3.59
827.093	15.07
827.266	6.74
827.439	6.56
827.612	-4.37
827.785	23.22
827.957	3.22
828.13	12.3
828.303	6.37
828.476	10.44
828.649	3.04
828.821	16.74
828.994	5.08
829.167	9.15
829.34	6.93
829.512	32.29
829.685	7.85
829.858	28.03
830.03	-0.48
830.203	20.44
830.375	26.92
830.548	19.15
830.721	11.37
830.893	19.7
831.066	14.52
831.238	20.81
831.411	4.71
831.583	12.11
831.756	4.52
831.928	11.93
832.101	20.26
832.273	27.66
832.446	-11.77
832.618	10.81
832.79	5.82
832.963	16.92
833.135	-7.88
833.307	-1.59
833.48	9.89
833.652	23.03
833.824	32.84
833.997	8.22
834.169	-1.4
834.341	-5.48
834.513	8.78
834.686	11.74
834.858	-9.36
835.03	27.66
835.202	-7.88
835.374	8.78
835.546	0.08
835.718	0.26
835.891	18.96
836.063	25.81
836.235	-9.18
836.407	0.26
836.579	28.96
836.751	4.34
836.923	28.4
837.095	11.18
837.267	10.44
837.439	4.71
837.611	0.45
837.782	38.03
837.954	-0.29
838.126	7.3
838.298	4.71
838.47	-3.07
838.642	9.52
838.814	33.03
838.985	-4
839.157	-6.59
839.329	-0.11
839.501	41.92
839.672	-13.07
839.844	26.18
840.016	12.48
840.188	27.66
840.359	14.33
840.531	20.26
840.702	9.33
840.874	18.59
841.046	-5.29
841.217	27.11
841.389	0.82
841.56	20.26
841.732	-17.14
841.903	25.44
842.075	0.82
842.246	20.26
842.418	6
842.589	25.07
842.761	6.56
842.932	9.52
843.104	-0.11
843.275	17.48
843.446	-5.29
843.618	27.48
843.789	-3.07
843.96	35.25
844.132	6.74
844.303	16.74
844.474	23.59
844.646	13.59
844.817	8.22
844.988	10.81
845.159	15.63
845.331	20.07
845.502	20.63
845.673	53.58
845.844	2.11
846.015	42.66
846.186	15.44
846.357	21
846.528	21.55
846.7	26.92
846.871	33.03
847.042	34.33
847.213	10.81
847.384	30.25
847.555	19.52
847.726	25.44
847.897	14.89
848.067	25.07
848.238	26.55
848.409	43.95
848.58	38.95
848.751	46.54
848.922	18.03
849.093	27.85
849.264	34.7
849.434	46.54
849.605	-1.22
849.776	26.92
849.947	41.55
850.117	43.4
850.288	30.81
850.459	10.07
850.63	11.74
850.8	32.1
850.971	35.44
851.142	58.39
851.312	-1.03
851.483	23.96
851.653	13.59
851.824	38.95
851.995	18.96
852.165	35.81
852.336	13.22
852.506	14.89
852.677	26.74
852.847	30.07
853.018	18.22
853.188	15.26
853.358	25.44
853.529	37.84
853.699	16.18
853.87	22.11
854.04	-16.03
854.21	45.62
854.381	10.63
854.551	11
854.721	2.48
854.892	26.37
855.062	11.74
855.232	30.07
855.402	1.56
855.573	19.33
855.743	-7.51
855.913	27.85
856.083	7.3
856.253	9.7
856.423	-7.51
856.594	27.66
856.764	23.4
856.934	22.66
857.104	-2.7
857.274	27.48
857.444	14.33
857.614	-5.11
857.784	-2.33
857.954	2.48
858.124	-9.92
858.294	27.48
858.464	18.03
858.634	35.44
858.804	2.67
858.974	6.93
859.143	26.37
859.313	33.96
859.483	10.63
859.653	21.55
859.823	9.89
859.993	12.48
860.162	28.4
860.332	30.81
860.502	34.88
860.672	34.33
860.841	13.78
861.011	38.58
861.181	21.74
861.35	63.58
861.52	38.03
861.69	48.95
861.859	21.55
862.029	48.02
862.198	45.62
862.368	45.06
862.538	29.33
862.707	45.99
862.877	44.32
863.046	42.1
863.216	40.8
863.385	53.39
863.555	52.65
863.724	62.65
863.893	44.32
864.063	87.27
864.232	45.06
864.402	59.69
864.571	67.46
864.74	52.28
864.91	48.95
865.079	68.39
865.248	73.2
865.418	83.57
865.587	49.14
865.756	74.5
865.925	57.1
866.094	85.42
866.264	82.09
866.433	89.31
866.602	70.8
866.771	71.35
866.94	86.72
867.109	72.46
867.278	64.32
867.448	60.8
867.617	59.87
867.786	71.72
867.955	61.35
868.124	76.53
868.293	66.54
868.462	90.6
868.631	58.95
868.8	75.05
868.969	59.13
869.137	73.2
869.306	65.24
869.475	72.09
869.644	66.54
869.813	78.94
869.982	54.69
870.151	76.72
870.319	40.62
870.488	42.29
870.657	53.02
870.826	53.21
870.995	59.32
871.163	47.47
871.332	33.77
871.501	29.33
871.669	35.81
871.838	51.17
872.007	31.92
872.175	54.87
872.344	26.18
872.512	22.66
872.681	20.44
872.85	36.55
873.018	13.59
873.187	5.26
873.355	14.52
873.524	16.74
873.692	23.77
873.861	14.33
874.029	18.77
874.197	22.11
874.366	-1.77
874.534	14.15
874.703	-6.59
874.871	5.63
875.039	12.48
875.208	14.52
875.376	25.81
875.544	18.96
875.713	-2.14
875.881	28.4
876.049	-12.7
876.217	30.44
876.386	10.44
876.554	18.96
876.722	8.41
876.89	28.22
877.058	13.22
877.226	38.77
877.395	18.22
877.563	15.81
877.731	8.41
877.899	40.25
878.067	12.11
878.235	17.29
878.403	-0.11
878.571	14.15
878.739	25.44
878.907	51.91
879.075	25.07
879.243	39.14
879.411	-11.03
879.579	3.41
879.747	19.15
879.914	33.4
880.082	10.63
880.25	-2.7
880.418	10.26
880.586	23.4
880.754	4.71
880.921	30.07
881.089	17.48
881.257	33.03
881.425	31.92
881.592	36.18
881.76	22.66
881.928	28.96
882.095	23.4
882.263	50.62
882.431	23.77
882.598	35.07
882.766	22.85
882.933	41.55
883.101	9.33
883.269	63.58
883.436	39.69
883.604	38.58
883.771	56.91
883.939	61.91
884.106	27.66
884.273	66.54
884.441	55.99
884.608	33.21
884.776	35.99
884.943	66.54
885.11	47.47
885.278	48.02
885.445	58.21
885.613	54.5
885.78	42.1
885.947	57.28
886.114	37.47
886.282	68.39
886.449	42.66
886.616	63.76
886.783	44.32
886.951	63.39
887.118	38.21
887.285	35.99
887.452	41.92
887.619	49.69
887.786	55.8
887.953	60.8
888.12	35.99
888.287	53.76
888.455	46.17
888.622	61.72
888.789	40.62
888.956	55.43
889.123	45.06
889.29	51.91
889.456	50.8
889.623	39.88
889.79	42.66
889.957	48.21
890.124	44.69
890.291	69.68
890.458	35.99
890.625	53.76
890.791	45.62
890.958	30.62
891.125	35.25
891.292	34.88
891.459	10.63
891.625	53.02
891.792	21.18
891.959	10.63
892.125	3.59
892.292	30.25
892.459	2.48
892.625	45.99
892.792	-2.14
892.959	25.07
893.125	-4.92
893.292	18.59
893.458	15.63
893.625	47.84
893.791	17.11
893.958	7.48
894.124	-11.03
894.291	-8.62
894.457	7.11
894.624	19.52
894.79	-5.11
894.957	6
895.123	-8.07
895.289	22.66
895.456	0.45
895.622	18.59
895.788	-11.22
895.955	3.22
896.121	-10.66
896.287	38.4
896.454	-25.29
896.62	-4
896.786	-15.66
896.952	-0.29
897.119	-12.7
897.285	12.85
897.451	-6.96
897.617	-12.14
897.783	-1.77
897.949	5.82
898.115	-0.29
898.281	-0.48
898.448	8.41
898.614	-1.03
898.78	-1.22
898.946	-4.37
899.112	-28.06
899.278	-5.85
899.444	-14.92
899.61	7.67
899.775	-18.44
899.941	8.22
900.107	-9.55
900.273	16.74
900.439	-5.48
900.605	3.96
900.771	-2.33
900.937	20.07
901.102	-1.4
901.268	-0.85
901.434	-16.03
901.6	10.26
901.766	-12.14
901.931	19.15
902.097	-11.77
902.263	12.67
902.428	13.41
902.594	-0.48
902.76	-10.66
902.925	-14.55
903.091	7.67
903.256	7.67
903.422	-13.25
903.588	-9.36
903.753	-9.73
903.919	12.3
904.084	-13.25
904.25	12.85
904.415	-4.92
904.581	8.59
904.746	28.77
904.912	-15.1
905.077	7.3
905.242	-12.7
905.408	-9.73
905.573	-6.96
905.738	1.37
905.904	29.33
906.069	29.33
