Data from FLMT087451__11__13-56-59-492.txt Node

Date: Tue Jun 04 13:56:59 JST 2024
User: power
Spectrometer: FLMT08745
Trigger mode: 0
Integration Time (sec): 9.600000E-2
Scans to average: 11
Electric dark correction enabled: true
Nonlinearity correction enabled: false
Boxcar width: 0
XAxis mode: Wavelengths
Number of Pixels in Spectrum: 3648
>>>>>Begin Spectral Data<<<<<
194.923	-153.32
195.148	-153.32
195.372	-153.32
195.597	-152.39
195.821	-145.35
196.046	35.88
196.271	-23.36
196.495	-49.46
196.72	10.34
196.944	-25.39
197.169	-0.77
197.393	45.7
197.618	9.97
197.842	18.48
198.067	-6.33
198.291	-46.87
198.516	31.81
198.74	-47.98
198.964	50.32
199.189	13.85
199.413	74.39
199.637	30.14
199.862	14.78
200.086	15.33
200.31	88.27
200.535	-6.7
200.759	113.08
200.983	-30.76
201.207	-22.8
201.432	5.15
201.656	58.1
201.88	-0.22
202.104	-5.4
202.328	40.88
202.552	53.84
202.777	31.81
203.001	33.11
203.225	-16.14
203.449	-52.24
203.673	42.73
203.897	17.19
204.121	-13.55
204.345	49.4
204.569	-13.92
204.793	12
205.017	9.41
205.241	57.36
205.465	-18.54
205.689	-7.81
205.912	4.97
206.136	-26.5
206.36	-10.58
206.584	33.29
206.808	-36.69
207.032	39.03
207.255	52.73
207.479	62.17
207.703	-6.51
207.927	20.33
208.15	-27.43
208.374	14.04
208.598	-42.24
208.822	1.82
209.045	-23.54
209.269	19.59
209.492	94.38
209.716	73.28
209.94	48.84
210.163	63.84
210.387	84.94
210.61	48.66
210.834	-5.77
211.057	7.93
211.281	-34.65
211.504	-2.07
211.728	-7.62
211.951	80.31
212.175	90.87
212.398	1.45
212.622	11.45
212.845	90.5
213.068	-9.66
213.292	32
213.515	-28.17
213.738	3.3
213.962	4.6
214.185	-23.36
214.408	14.41
214.631	60.88
214.855	19.96
215.078	0.52
215.301	20.15
215.524	4.23
215.747	34.77
215.971	2.56
216.194	12.19
216.417	22.55
216.64	30.33
216.863	324.5
217.086	37.73
217.309	-12.8
217.532	45.51
217.755	2.19
217.978	32.92
218.201	70.13
218.424	64.95
218.647	9.6
218.87	0.34
219.093	61.8
219.316	62.54
219.539	8.86
219.762	10.71
219.985	19.41
220.207	-64.82
220.43	-4.29
220.653	9.41
220.876	11.63
221.099	67.17
221.321	13.67
221.544	4.41
221.767	52.73
221.99	-12.99
222.212	16.82
222.435	36.81
222.658	79.57
222.88	-15.4
223.103	86.05
223.326	-22.8
223.548	26.26
223.771	4.6
223.993	-2.44
224.216	-32.61
224.438	23.3
224.661	5.15
224.883	52.36
225.106	91.79
225.328	3.12
225.551	42.92
225.773	-9.1
225.996	16.63
226.218	19.41
226.44	58.65
226.663	43.29
226.885	5.15
227.108	44.95
227.33	39.22
227.552	29.22
227.774	7.37
227.997	29.59
228.219	22
228.441	44.95
228.663	86.98
228.886	31.07
229.108	14.41
229.33	14.22
229.552	-43.54
229.774	46.81
229.996	-0.03
230.219	62.36
230.441	13.11
230.663	34.96
230.885	1.27
231.107	7.19
231.329	21.44
231.551	57.73
231.773	-3.55
231.995	7.74
232.217	-5.21
232.439	17.74
232.661	7.19
232.883	24.41
233.105	19.04
233.326	6.45
233.548	61.8
233.77	12.37
233.992	58.65
234.214	10.15
234.436	-34.65
234.657	10.52
234.879	87.16
235.101	-41.87
235.323	1.08
235.544	14.59
235.766	29.59
235.988	58.1
236.21	60.51
236.431	70.13
236.653	51.06
236.874	71.43
237.096	9.23
237.318	-48.35
237.539	32.37
237.761	31.07
237.982	5.34
238.204	98.46
238.425	-6.33
238.647	46.99
238.868	-9.66
239.09	30.89
239.311	-37.06
239.533	31.07
239.754	66.98
239.975	-12.06
240.197	-5.03
240.418	9.23
240.64	48.84
240.861	16.26
241.082	44.03
241.304	32.37
241.525	4.78
241.746	12
241.967	-34.65
242.189	7.93
242.41	55.69
242.631	119.93
242.852	-10.4
243.073	94.2
243.294	5.52
243.516	33.48
243.737	14.78
243.958	-5.03
244.179	18.85
244.4	104.38
244.621	-6.14
244.842	8.67
245.063	61.25
245.284	36.99
245.505	47.55
245.726	36.81
245.947	50.32
246.168	0.15
246.389	8.48
246.61	72.35
246.831	36.62
247.052	44.21
247.272	5.15
247.493	7.93
247.714	61.99
247.935	-35.95
248.156	51.06
248.376	65.69
248.597	67.54
248.818	21.26
249.039	-4.66
249.259	0.34
249.48	-45.57
249.701	44.21
249.921	-27.24
250.142	-0.96
250.363	39.96
250.583	18.48
250.804	47.36
251.025	91.79
251.245	54.95
251.466	61.25
251.686	30.89
251.907	-27.98
252.127	42.73
252.348	43.47
252.568	11.08
252.789	45.88
253.009	43.84
253.23	101.79
253.45	28.66
253.67	39.03
253.891	-21.14
254.111	81.61
254.331	67.17
254.552	15.52
254.772	51.25
254.992	44.58
255.213	-0.22
255.433	60.51
255.653	-12.06
255.873	32.55
256.093	44.58
256.314	24.96
256.534	-36.13
256.754	96.98
256.974	-4.1
257.194	5.15
257.414	6.08
257.634	49.03
257.855	18.48
258.075	-9.29
258.295	0.15
258.515	2.93
258.735	57.36
258.955	60.32
259.175	27.37
259.395	39.59
259.615	65.5
259.835	29.96
260.054	4.6
260.274	55.51
260.494	35.14
260.714	107.16
260.934	39.59
261.154	28.85
261.374	19.41
261.593	25.33
261.813	-42.79
262.033	12.37
262.253	40.14
262.472	30.14
262.692	21.44
262.912	49.4
263.132	36.25
263.351	74.02
263.571	94.01
263.791	47.55
264.01	65.13
264.23	41.81
264.449	1.08
264.669	112.16
264.888	83.83
265.108	24.78
265.328	91.05
265.547	43.29
265.767	47.36
265.986	-22.25
266.205	70.32
266.425	29.77
266.644	61.99
266.864	-12.62
267.083	73.28
267.303	21.81
267.522	50.88
267.741	24.04
267.961	56.06
268.18	14.78
268.399	40.51
268.618	33.48
268.838	49.58
269.057	38.48
269.276	36.81
269.495	44.77
269.715	114.56
269.934	12.93
270.153	46.25
270.372	0.52
270.591	43.29
270.81	32.18
271.029	66.61
271.249	54.58
271.468	13.85
271.687	88.09
271.906	16.08
272.125	57.91
272.344	65.69
272.563	35.51
272.782	17.19
273.001	-14.66
273.22	40.88
273.439	48.47
273.657	36.62
273.876	75.69
274.095	-48.53
274.314	63.28
274.533	88.27
274.752	11.26
274.971	57.36
275.189	105.86
275.408	65.87
275.627	13.3
275.846	61.62
276.064	22.74
276.283	10.89
276.502	57.36
276.72	-20.02
276.939	33.66
277.158	-4.66
277.376	12.74
277.595	56.25
277.814	34.03
278.032	70.87
278.251	23.11
278.469	-26.87
278.688	32.55
278.906	104.75
279.125	48.47
279.343	17.37
279.562	29.4
279.78	-25.58
279.999	37.18
280.217	23.11
280.435	27.74
280.654	-19.1
280.872	80.13
281.091	24.59
281.309	49.03
281.527	83.46
281.746	50.14
281.964	13.48
282.182	47.18
282.4	59.21
282.619	120.49
282.837	99.94
283.055	8.3
283.273	17.19
283.491	32.74
283.71	37.92
283.928	38.66
284.146	23.67
284.364	21.63
284.582	36.99
284.8	57.17
285.018	22.92
285.236	-13.36
285.454	96.98
285.672	70.69
285.89	40.51
286.108	5.15
286.326	57.36
286.544	63.28
286.762	15.89
286.98	0.71
287.198	84.57
287.416	163.99
287.634	72.72
287.851	70.87
288.069	54.4
288.287	50.14
288.505	18.85
288.723	65.5
288.94	78.28
289.158	55.14
289.376	127.15
289.594	70.13
289.811	33.11
290.029	41.07
290.247	171.58
290.464	135.48
290.682	53.1
290.9	191.39
291.117	213.6
291.335	202.31
291.552	207.68
291.77	329.12
291.987	345.6
292.205	419.84
292.422	457.79
292.64	543.13
292.857	495.74
293.075	584.6
293.292	558.86
293.51	590.52
293.727	597.19
293.945	655.32
294.162	610.7
294.379	529.43
294.597	463.71
294.814	363.37
295.031	275.44
295.249	250.44
295.466	154.18
295.683	163.44
295.9	169.91
296.118	177.69
296.335	179.54
296.552	314.31
296.769	355.41
296.986	327.64
297.204	303.02
297.421	290.06
297.638	253.59
297.855	266.74
298.072	192.32
298.289	241
298.506	184.72
298.723	240.82
298.94	177.88
299.157	171.4
299.374	146.4
299.591	193.24
299.808	112.16
300.025	103.64
300.242	146.22
300.459	230.08
300.676	175.28
300.893	207.5
301.109	275.99
301.326	346.53
301.543	391.7
301.76	381.33
301.977	382.25
302.193	393.73
302.41	387.99
302.627	269.14
302.844	206.94
303.06	203.24
303.277	205.27
303.494	215.83
303.71	160.47
303.927	219.16
304.144	208.79
304.36	262.66
304.577	221.38
304.793	323.38
305.01	278.77
305.227	301.54
305.443	328.94
305.66	465.93
305.876	360.96
306.093	545.17
306.309	680.68
306.526	772.5
306.742	1000.21
306.958	1134.98
307.175	1195.14
307.391	1272.71
307.608	1528.18
307.824	1737.56
308.04	1926.21
308.257	2021.55
308.473	2155.76
308.689	2146.51
308.905	2289.98
309.122	2531.01
309.338	3037.15
309.554	3946.3
309.77	4721.24
309.986	5316.98
310.203	5371.59
310.419	5326.6
310.635	5017.44
310.851	4699.21
311.067	5095.38
311.283	6060.07
311.499	7615.69
311.715	9823.5
311.931	12757.93
312.147	15543.52
312.363	16568.01
312.579	16065.58
312.795	14252.46
313.011	11117.35
313.227	7403.72
313.443	4748.45
313.659	2807.22
313.875	1464.87
314.091	783.98
314.307	500.74
314.523	385.59
314.738	325.61
314.954	348.56
315.17	267.29
315.386	296.17
315.602	227.67
315.817	251.56
316.033	253.59
316.249	258.78
316.465	266.18
316.68	241
316.896	286.91
317.112	259.89
317.327	275.25
317.543	392.81
317.758	307.83
317.974	316.72
318.19	340.6
318.405	277.1
318.621	298.76
318.836	274.88
319.052	268.22
319.267	327.64
319.483	306.91
319.698	403.17
319.914	401.51
320.129	397.06
320.344	477.04
320.56	407.06
320.775	439.46
320.99	338.75
321.206	350.41
321.421	348.75
321.636	328.01
321.852	345.78
322.067	360.04
322.282	362.45
322.498	449.64
322.713	535.72
322.928	707.89
323.143	681.6
323.358	719.92
323.574	846.55
323.789	853.4
324.004	940.78
324.219	1110.91
324.434	1390.45
324.649	1555.21
324.864	1744.41
325.079	1779.59
325.294	1696.83
325.509	1595.94
325.724	1503.75
325.939	1336.21
326.154	1260.68
326.369	1329.91
326.584	1197.18
326.799	1182.74
327.014	1308.07
327.229	1279.38
327.444	1323.44
327.659	1297.33
327.873	1270.86
328.088	1205.7
328.303	1109.43
328.518	1072.22
328.733	1092.4
328.947	1227.73
329.162	1270.49
329.377	1435.99
329.591	1630.56
329.806	1835.31
330.021	2112.81
330.235	2403.65
330.45	2548.78
330.665	2675.78
330.879	2854.06
331.094	3080.65
331.309	3385.37
331.523	4067.37
331.738	5041.32
331.952	6639.7
332.167	8999.69
332.381	11878.03
332.596	16089.28
332.81	21006.22
333.025	27108.54
333.239	34574.67
333.453	40503.33
333.668	43006.42
333.882	41750.53
334.097	37286.58
334.311	29248.04
334.525	21048.62
334.74	13889.24
334.954	8683.86
335.168	5171.28
335.382	2835.92
335.597	1669.62
335.811	1154.23
336.025	1080.55
336.239	873.39
336.453	844.33
336.668	738.44
336.882	582.56
337.096	621.62
337.31	597.19
337.524	668.64
337.738	835.81
337.952	983.91
338.166	1109.99
338.38	1158.86
338.594	1185.89
338.808	1006.31
339.022	957.26
339.236	787.87
339.45	696.04
339.664	717.52
339.878	638.1
340.092	629.58
340.306	640.32
340.52	749.54
340.734	805.27
340.948	842.85
341.161	882.28
341.375	955.96
341.589	989.47
341.803	1053.89
342.017	1130.16
342.23	1307.88
342.444	1545.96
342.658	1655.92
342.871	1794.21
343.085	1708.5
343.299	1554.1
343.512	1366.2
343.726	1150.53
343.94	1107.39
344.153	964.48
344.367	885.8
344.58	773.24
344.794	768.43
345.008	793.23
345.221	898.94
345.435	1075.37
345.648	1241.42
345.862	1447.84
346.075	1679.06
346.288	1873.45
346.502	2077.64
346.715	2044.69
346.929	1913.8
347.142	1914.91
347.355	1842.71
347.569	1942.13
347.782	2118.55
347.995	2344.41
348.209	2653.57
348.422	3062.69
348.635	3619.37
348.848	4383.38
349.062	5229.78
349.275	6363.31
349.488	7548.86
349.701	9092.99
349.914	10637.87
350.128	12199.04
350.341	12883.08
350.554	12715.35
350.767	11834.89
350.98	10151.91
351.193	8612.77
351.406	7150.46
351.619	6217.61
351.832	5655.39
352.045	5513.21
352.258	5872.72
352.471	6871.48
352.684	8426.17
352.897	10631.94
353.11	13246.85
353.323	16968.07
353.536	20461.21
353.748	25918.36
353.961	30792.73
354.174	34820.52
354.387	36081.41
354.6	34910.67
354.813	29984.28
355.025	23981.76
355.238	18133.44
355.451	13194.83
355.664	9332.73
355.876	6522.89
356.089	4505.57
356.302	3300.77
356.514	2614.5
356.727	2175.57
356.94	2015.81
357.152	1905.1
357.365	1857.71
357.577	1695.72
357.79	1493.2
358.002	1301.22
358.215	1261.6
358.427	1262.16
358.64	1233.83
358.852	1103.51
359.065	1011.13
359.277	893.02
359.49	838.96
359.702	755.84
359.915	592.37
360.127	524.25
360.339	494.63
360.552	495.92
360.764	526.28
360.976	540.35
361.189	483.52
361.401	574.97
361.613	582.56
361.825	489.07
362.038	565.16
362.25	625.51
362.462	658.83
362.674	720.11
362.886	852.84
363.099	880.43
363.311	1006.31
363.523	1073.33
363.735	1089.99
363.947	1033.53
364.159	1062.41
364.371	946.52
364.583	828.96
364.795	766.39
365.007	689.93
365.219	646.24
365.431	656.98
365.643	681.42
365.855	741.4
366.067	829.89
366.279	1028.16
366.491	1265.86
366.703	1590.02
366.914	1938.61
367.126	2338.67
367.338	2822.96
367.55	3093.43
367.762	3196.17
367.974	3009.38
368.185	2709.29
368.397	2297.01
368.609	1940.28
368.82	1632.6
369.032	1460.06
369.244	1299.37
369.456	1347.5
369.667	1411.37
369.879	1647.78
370.09	1842.53
370.302	2258.51
370.514	2759.46
370.725	3331.13
370.937	3981.11
371.148	4860.08
371.36	5952.14
371.571	7234.33
371.783	8677.38
371.994	9685.02
372.206	9945.68
372.417	9604.31
372.629	8544.09
372.84	6696.9
373.051	5045.95
373.263	3854.48
373.474	2876.09
373.685	2065.42
373.897	1610.94
374.108	1437.29
374.319	1302.7
374.531	1427.66
374.742	1656.85
374.953	1922.69
375.164	2245.73
375.375	2825.92
375.587	3421.28
375.798	4204.74
376.009	5099.45
376.22	6304.07
376.431	7503.5
376.642	9290.71
376.853	10930.92
377.065	11640.88
377.276	11621.26
377.487	10810.41
377.698	8864.73
377.909	6970.71
378.12	5224.41
378.331	3862.44
378.542	2751.5
378.753	1891.96
378.964	1357.31
379.174	1015.2
379.385	834.52
379.596	762.5
379.807	789.53
380.018	771.39
380.229	873.21
380.44	952.26
380.65	875.8
380.861	964.48
381.072	1000.95
381.283	1112.95
381.493	1200.14
381.704	1304.55
381.915	1342.32
382.126	1441.92
382.336	1659.07
382.547	1722.57
382.757	1766.81
382.968	1821.79
383.179	1934.72
383.389	2174.65
383.6	2281.83
383.81	2520.09
384.021	2854.24
384.231	3123.6
384.442	3614.93
384.652	4229.91
384.863	5113.15
385.073	5759.06
385.284	6700.05
385.494	7718.8
385.705	8836.22
385.915	10230.59
386.125	12571.7
386.336	15039.24
386.546	18337.26
386.756	21982.21
386.967	25443.51
387.177	28339.81
387.387	32419.06
387.598	38959.57
387.808	46733.19
388.018	51170.85
388.228	51812.5
388.439	50691.19
388.649	44273.42
388.859	34555.79
389.069	26626.65
389.279	20208.15
389.489	14518.85
389.699	9788.7
389.909	6372.56
390.12	4368.76
390.33	3223.38
390.54	2798.89
390.75	2692.81
390.96	2588.22
391.17	2412.53
391.38	2208.34
391.59	1763.29
391.799	1511.52
392.009	1299
392.219	1057.04
392.429	885.61
392.639	798.97
392.849	687.53
393.059	761.58
393.269	734.55
393.478	734.92
393.688	846.37
393.898	888.2
394.108	904.5
394.317	1022.98
394.527	1118.87
394.737	1345.1
394.947	1523.56
395.156	1743.86
395.366	2125.4
395.576	2444.19
395.785	2861.09
395.995	3520.51
396.204	4081.63
396.414	4204.37
396.624	4274.16
396.833	3911.5
397.043	3292.07
397.252	2688.18
397.462	2104.48
397.671	1587.61
397.881	1129.61
398.09	859.69
398.299	594.22
398.509	476.11
398.718	399.47
398.928	390.59
399.137	418.35
399.346	389.84
399.556	456.86
399.765	443.16
399.974	508.88
400.184	637.73
400.393	746.21
400.602	867.1
400.811	1025.38
401.021	1174.41
401.23	1409.33
401.439	1585.94
401.648	1796.43
401.857	2145.77
402.066	2518.61
402.276	2965.5
402.485	3184.69
402.694	3226.35
402.903	3073.06
403.112	2610.62
403.321	2119.29
403.53	1704.24
403.739	1243.65
403.948	1003.72
404.157	776.39
404.366	551.64
404.575	392.62
404.784	391.88
404.993	336.71
405.202	392.25
405.411	400.58
405.619	334.86
405.828	381.88
406.037	423.54
406.246	357.26
406.455	356.15
406.663	399.84
406.872	308.2
407.081	322.83
407.29	365.22
407.498	334.12
407.707	304.5
407.916	304.69
408.124	366.89
408.333	438.72
408.542	296.54
408.75	345.78
408.959	362.08
409.168	428.17
409.376	410.76
409.585	469.63
409.793	590.15
410.002	520.73
410.21	650.87
410.419	663.46
410.627	685.31
410.836	705.48
411.044	723.26
411.253	712.33
411.461	596.63
411.669	616.81
411.878	584.04
412.086	451.31
412.294	486.67
412.503	405.95
412.711	435.94
412.919	436.31
413.128	420.95
413.336	395.03
413.544	509.44
413.752	480.74
413.961	507.77
414.169	433.72
414.377	534.06
414.585	667.53
414.793	585.89
415.001	628.66
415.209	716.59
415.418	751.4
415.626	879.5
415.834	903.75
416.042	1018.53
416.25	1205.33
416.458	1344.17
416.666	1441.18
416.874	1555.58
417.082	1505.78
417.29	1350.46
417.498	1222.54
417.706	1097.58
417.913	1072.77
418.121	1025.01
418.329	1070.18
418.537	985.4
418.745	1063.52
418.953	1206.25
419.161	1379.34
419.368	1429.51
419.576	1518.93
419.784	1816.98
419.992	2224.81
420.199	2564.15
420.407	2582.66
420.615	2797.04
420.822	2707.62
421.03	2547.12
421.238	2473.81
421.445	2620.24
421.653	2838.51
421.861	3561.05
422.068	4229.91
422.276	5014.85
422.483	5729.99
422.691	6547.32
422.898	7272.83
423.106	7927.44
423.313	8987.47
423.521	9540.44
423.728	10265.21
423.936	11842.3
424.143	14361.49
424.35	16362.52
424.558	16715.74
424.765	16642.8
424.973	14880.77
425.18	12224.4
425.387	10068.05
425.594	8108.49
425.802	6579.72
426.009	5057.61
426.216	3738.78
426.424	2681.89
426.631	1877.7
426.838	1230.69
427.045	832.67
427.252	647.17
427.459	516.66
427.667	457.6
427.874	323.01
428.081	341.53
428.288	333.57
428.495	282.29
428.702	400.95
428.909	296.54
429.116	328.2
429.323	403.73
429.53	410.21
429.737	427.05
429.944	506.66
430.151	587.93
430.358	756.58
430.565	827.67
430.772	968.55
430.979	1105.36
431.185	1105.36
431.392	1083.7
431.599	1137.94
431.806	957.63
432.013	850.25
432.219	797.86
432.426	707.34
432.633	606.07
432.84	481.67
433.046	410.21
433.253	320.79
433.46	318.39
433.666	221.01
433.873	248.96
434.08	242.11
434.286	236.56
434.493	269.88
434.7	200.65
434.906	179.91
435.113	160.29
435.319	274.7
435.526	151.4
435.732	231.75
435.939	186.21
436.145	130.67
436.352	219.53
436.558	213.05
436.765	302.65
436.971	226.56
437.177	295.25
437.384	242.85
437.59	262.29
437.796	321.9
438.003	312.09
438.209	402.06
438.415	332.46
438.622	360.22
438.828	362.08
439.034	285.25
439.24	225.08
439.447	259.52
439.653	223.23
439.859	209.16
440.065	243.22
440.271	183.61
440.477	252.85
440.683	253.22
440.89	225.82
441.096	284.88
441.302	265.25
441.508	299.87
441.714	200.28
441.92	206.75
442.126	216.75
442.332	290.99
442.538	278.77
442.744	295.62
442.95	361.15
443.156	336.9
443.361	393.55
443.567	333.75
443.773	385.77
443.979	425.39
444.185	360.41
444.391	314.31
444.596	355.78
444.802	367.26
445.008	536.46
445.214	446.12
445.42	562.75
445.625	505.92
445.831	561.83
446.037	573.86
446.242	515.55
446.448	413.54
446.654	424.83
446.859	348.01
447.065	325.98
447.27	318.76
447.476	286.73
447.682	215.83
447.887	292.65
448.093	302.09
448.298	252.11
448.504	287.28
448.709	246.19
448.915	303.21
449.12	217.68
449.325	300.06
449.531	261.37
449.736	292.1
449.942	252.85
450.147	315.61
450.352	350.04
450.558	305.43
450.763	323.94
450.968	380.03
451.174	312.28
451.379	326.35
451.584	360.78
451.789	373.74
451.995	393.36
452.2	364.11
452.405	341.16
452.61	405.21
452.815	470.56
453.02	412.24
453.226	395.03
453.431	522.02
453.636	522.02
453.841	567.01
454.046	597.19
454.251	571.64
454.456	564.42
454.661	499.99
454.866	436.31
455.071	430.2
455.276	393.73
455.481	356.52
455.686	320.79
455.891	322.64
456.095	324.68
456.3	327.64
456.505	307.28
456.71	454.27
456.915	422.43
457.12	398.36
457.324	325.98
457.529	354.3
457.734	387.44
457.939	310.24
458.144	314.13
458.348	279.32
458.553	363.19
458.758	287.66
458.962	317.65
459.167	363.37
459.372	434.09
459.576	508.14
459.781	470.56
459.985	514.06
460.19	568.49
460.394	570.9
460.599	644.21
460.803	623.29
461.008	727.7
461.212	741.95
461.417	929.67
461.621	980.77
461.826	1044.64
462.03	1045.93
462.235	1087.21
462.439	1020.94
462.643	1006.87
462.848	857.1
463.052	776.76
463.256	790.64
463.461	727.7
463.665	647.73
463.869	674.01
464.074	599.22
464.278	627.73
464.482	692.71
464.686	666.79
464.89	780.83
465.095	940.96
465.299	893.02
465.503	1072.03
465.707	1148.86
465.911	1279.38
466.115	1494.12
466.319	1597.05
466.523	1763.85
466.727	1795.51
466.931	2006.37
467.135	2410.87
467.339	2981.05
467.543	3382.41
467.747	3545.87
467.951	3597.15
468.155	3225.42
468.359	2729.47
468.563	2223.7
468.767	1886.77
468.971	1553.36
469.175	1296.04
469.379	1000.21
469.582	799.9
469.786	557.94
469.99	392.62
470.194	332.27
470.397	292.65
470.601	222.86
470.805	252.3
471.009	188.98
471.212	192.13
471.416	193.06
471.62	206.38
471.823	188.8
472.027	241.93
472.23	116.41
472.434	303.95
472.638	205.09
472.841	224.34
473.045	214.9
473.248	189.72
473.452	211.57
473.655	229.34
473.859	160.47
474.062	194.72
474.266	190.46
474.469	136.59
474.672	191.02
474.876	207.5
475.079	161.95
475.283	238.78
475.486	199.54
475.689	204.35
475.893	235.08
476.096	279.14
476.299	206.57
476.502	235.82
476.706	225.45
476.909	256.92
477.112	276.36
477.315	287.47
477.519	302.28
477.722	320.05
477.925	300.06
478.128	291.36
478.331	277.66
478.534	267.85
478.737	309.5
478.94	252.3
479.143	151.4
479.346	244.34
479.549	264.14
479.752	195.83
479.955	202.31
480.158	277.47
480.361	218.05
480.564	235.82
480.767	165.84
480.97	203.61
481.173	185.1
481.376	239.52
481.579	202.68
481.782	208.61
481.984	247.11
482.187	248.41
482.39	283.95
482.593	300.8
482.796	284.88
482.998	286.17
483.201	338.38
483.404	276.73
483.606	237.49
483.809	369.11
484.012	293.21
484.214	298.02
484.417	283.77
484.62	262.85
484.822	248.78
485.025	289.32
485.227	366.7
485.43	289.88
485.632	247.3
485.835	340.23
486.037	327.46
486.24	260.07
486.442	424.83
486.645	278.58
486.847	286.36
487.05	329.49
487.252	332.27
487.455	338.01
487.657	357.82
487.859	392.81
488.062	355.6
488.264	407.62
488.466	420.02
488.668	434.46
488.871	377.81
489.073	371.33
489.275	338.38
489.477	299.13
489.68	263.4
489.882	259.15
490.084	247.11
490.286	287.84
490.488	234.89
490.69	223.42
490.893	251.93
491.095	175.84
491.297	216.57
491.499	258.96
491.701	263.59
491.903	227.86
492.105	264.14
492.307	288.95
492.509	365.59
492.711	245.26
492.913	300.8
493.115	313.2
493.317	246.37
493.518	231.93
493.72	198.61
493.922	253.78
494.124	235.26
494.326	269.88
494.528	202.31
494.73	258.41
494.931	337.82
495.133	202.87
495.335	278.4
495.537	235.26
495.738	319.31
495.94	289.51
496.142	218.79
496.343	291.54
496.545	340.97
496.747	444.09
496.948	514.99
497.15	604.59
497.351	601.26
497.553	596.63
497.755	634.95
497.956	682.34
498.158	564.42
498.359	579.78
498.561	535.35
498.762	459.64
498.964	506.84
499.165	465.56
499.366	416.32
499.568	364.85
499.769	391.33
499.971	392.44
500.172	401.51
500.373	382.44
500.575	372.26
500.776	426.13
500.977	386.51
501.178	428.91
501.38	427.43
501.581	460.19
501.782	390.4
501.983	446.31
502.185	368.37
502.386	393.55
502.587	356.52
502.788	400.95
502.989	345.41
503.19	417.24
503.391	381.33
503.593	379.29
503.794	372.81
503.995	391.51
504.196	508.51
504.397	447.05
504.598	488.7
504.799	457.23
505	544.42
505.201	549.61
505.402	478.33
505.602	420.95
505.803	355.6
506.004	340.97
506.205	389.1
506.406	372.81
506.607	312.09
506.808	373.74
507.008	305.61
507.209	330.97
507.41	333.57
507.611	232.49
507.812	242.48
508.012	236
508.213	248.04
508.414	254.52
508.614	271.73
508.815	224.53
509.016	320.79
509.216	317.46
509.417	310.61
509.617	303.39
509.818	312.83
510.019	360.41
510.219	305.43
510.42	326.16
510.62	386.88
510.821	411.13
511.021	455.01
511.222	518.88
511.422	546.28
511.623	550.9
511.823	576.27
512.023	490.37
512.224	548.68
512.424	401.51
512.624	430.94
512.825	381.88
513.025	449.27
513.225	367.81
513.426	394.66
513.626	348.56
513.826	417.06
514.026	432.42
514.227	410.39
514.427	409.65
514.627	377.81
514.827	420.21
515.027	467.41
515.228	427.43
515.428	454.27
515.628	416.32
515.828	439.09
516.028	426.5
516.228	515.73
516.428	503.51
516.628	614.59
516.828	868.21
517.028	1384.53
517.228	1868.45
517.428	2278.5
517.628	2575.63
517.828	2761.49
518.028	2539.9
518.228	2190.38
518.428	1926.02
518.627	1741.26
518.827	1633.15
519.027	1593.35
519.227	1592.24
519.427	1504.67
519.626	1425.44
519.826	1320.29
520.026	1145.53
520.226	951.33
520.425	831.56
520.625	629.95
520.825	557.94
521.024	559.79
521.224	450.57
521.424	466.67
521.623	361.15
521.823	317.65
522.023	358.37
522.222	279.88
522.422	289.14
522.621	358.19
522.821	351.89
523.02	349.12
523.22	369.11
523.419	409.28
523.619	392.62
523.818	332.09
524.017	424.83
524.217	454.45
524.416	527.58
524.616	557.75
524.815	404.65
525.014	421.5
525.214	399.66
525.413	398.73
525.612	445.57
525.812	343.38
526.011	408.54
526.21	490.92
526.409	518.51
526.608	634.4
526.808	562.38
527.007	616.25
527.206	628.1
527.405	500.18
527.604	552.57
527.803	562.38
528.003	495.92
528.202	528.32
528.401	577.93
528.6	445.38
528.799	448.34
528.998	437.98
529.197	474.82
529.396	488.52
529.595	543.13
529.794	566.83
529.993	533.87
530.192	570.9
530.39	447.05
530.589	440.01
530.788	460.56
530.987	415.02
531.186	427.98
531.385	436.87
531.583	463.15
531.782	460.56
531.981	425.02
532.18	392.99
532.379	357.08
532.577	354.12
532.776	385.03
532.975	400.77
533.173	362.82
533.372	400.21
533.571	417.06
533.769	404.84
533.968	476.85
534.166	396.69
534.365	344.12
534.564	418.72
534.762	369.3
534.961	340.79
535.159	455.75
535.358	378.18
535.556	374.11
535.755	397.99
535.953	379.11
536.151	449.46
536.35	348.01
536.548	373
536.747	348.93
536.945	375.96
537.143	404.1
537.342	429.46
537.54	446.31
537.738	506.84
537.937	498.7
538.135	492.96
538.333	439.09
538.531	463.15
538.73	425.39
538.928	457.6
539.126	390.96
539.324	489.44
539.522	428.72
539.72	402.06
539.919	410.58
540.117	320.61
540.315	422.98
540.513	417.43
540.711	415.02
540.909	366.33
541.107	368.56
541.305	356.71
541.503	442.42
541.701	344.12
541.899	366.52
542.097	427.43
542.295	351.71
542.493	356.89
542.691	312.09
542.888	326.16
543.086	321.53
543.284	299.13
543.482	393.55
543.68	394.29
543.878	395.4
544.075	350.23
544.273	345.04
544.471	386.14
544.669	448.16
544.866	407.8
545.064	410.95
545.262	401.32
545.459	385.03
545.657	438.9
545.855	382.62
546.052	295.43
546.25	375.96
546.447	418.17
546.645	312.28
546.842	331.34
547.04	343.38
547.238	297.28
547.435	305.61
547.633	300.24
547.83	332.46
548.027	286.73
548.225	336.9
548.422	324.31
548.62	269.14
548.817	295.8
549.014	279.69
549.212	333.38
549.409	329.86
549.606	285.62
549.804	316.72
550.001	350.04
550.198	282.29
550.396	278.03
550.593	239.89
550.79	274.33
550.987	233.04
551.184	300.8
551.382	339.49
551.579	273.03
551.776	221.94
551.973	268.59
552.17	254.33
552.367	326.53
552.564	265.81
552.761	280.99
552.958	289.69
553.155	308.02
553.353	363
553.55	320.42
553.746	314.68
553.943	311.35
554.14	387.25
554.337	338.56
554.534	379.85
554.731	331.16
554.928	334.86
555.125	434.46
555.322	323.01
555.519	294.13
555.715	313.57
555.912	272.47
556.109	339.49
556.306	307.09
556.503	345.23
556.699	282.29
556.896	325.61
557.093	312.46
557.289	294.5
557.486	213.23
557.683	336.34
557.879	230.64
558.076	241.37
558.273	246.37
558.469	229.34
558.666	224.53
558.862	272.1
559.059	214.16
559.255	251.74
559.452	214.53
559.648	224.71
559.845	187.69
560.041	214.53
560.238	293.02
560.434	214.16
560.631	174.91
560.827	224.9
561.023	226.38
561.22	182.13
561.416	210.83
561.612	228.78
561.809	187.87
562.005	220.82
562.201	205.27
562.398	238.41
562.594	198.05
562.79	185.28
562.986	274.88
563.182	261.55
563.379	232.12
563.575	246
563.771	284.88
563.967	332.27
564.163	280.25
564.359	362.08
564.555	436.68
564.751	379.66
564.947	394.66
565.144	415.02
565.34	433.16
565.536	388.18
565.732	356.15
565.928	328.2
566.123	338.56
566.319	301.72
566.515	351.52
566.711	264.51
566.907	313.76
567.103	235.45
567.299	216.01
567.495	282.66
567.691	211.94
567.886	346.15
568.082	262.48
568.278	345.6
568.474	345.23
568.669	330.42
568.865	314.31
569.061	322.64
569.257	382.07
569.452	420.39
569.648	382.62
569.844	398.18
570.039	419.09
570.235	468.89
570.43	458.34
570.626	522.02
570.822	592.74
571.017	595.7
571.213	539.98
571.408	537.02
571.604	572.75
571.799	530.17
571.995	568.49
572.19	568.49
572.385	540.72
572.581	550.9
572.776	590.71
572.972	563.31
573.167	497.4
573.362	514.25
573.558	560.72
573.753	530.73
573.948	548.68
574.144	548.87
574.339	562.94
574.534	547.2
574.729	539.61
574.925	597.56
575.12	632.92
575.315	558.68
575.51	636.62
575.705	631.43
575.9	653.09
576.096	684.75
576.291	631.25
576.486	656.24
576.681	678.09
576.876	731.03
577.071	666.05
577.266	634.95
577.461	678.46
577.656	648.1
577.851	626.44
578.046	630.51
578.241	619.03
578.436	571.64
578.631	603.11
578.826	708.26
579.021	599.04
579.215	681.42
579.41	721.04
579.605	693.27
579.8	713.63
579.995	742.69
580.189	716.78
580.384	712.7
580.579	776.57
580.774	710.3
580.968	718.63
581.163	738.07
581.358	799.16
581.552	730.29
581.747	709
581.942	725.11
582.136	714.19
582.331	666.61
582.526	685.49
582.72	635.69
582.915	649.02
583.109	635.69
583.304	609.77
583.498	653.65
583.693	569.23
583.887	597
584.082	567.2
584.276	701.41
584.471	538.13
584.665	624.03
584.859	579.6
585.054	618.11
585.248	739.36
585.442	793.42
585.637	921.53
585.831	945.04
586.025	1089.07
586.22	1086.66
586.414	1032.05
586.608	986.51
586.802	956.33
586.997	874.87
587.191	851.73
587.385	819.15
587.579	756.76
587.773	756.95
587.967	601.07
588.162	618.85
588.356	508.14
588.55	519.06
588.744	502.03
588.938	461.86
589.132	444.64
589.326	466.86
589.52	427.43
589.714	397.81
589.908	475.56
590.102	527.76
590.296	475.93
590.49	495.74
590.684	490.18
590.877	512.4
591.071	475
591.265	491.85
591.459	523.51
591.653	473.71
591.847	479.08
592.04	495
592.234	515.36
592.428	441.87
592.622	503.88
592.815	475.56
593.009	439.64
593.203	525.36
593.397	432.42
593.59	418.35
593.784	410.95
593.977	384.85
594.171	371.52
594.365	465.01
594.558	475
594.752	482.96
594.945	460.01
595.139	464.08
595.332	436.5
595.526	495.55
595.719	489.81
595.913	543.31
596.106	510.36
596.3	532.76
596.493	555.53
596.687	564.05
596.88	631.62
597.073	642.91
597.267	579.41
597.46	590.52
597.653	614.03
597.847	595.52
598.04	588.3
598.233	673.27
598.426	494.07
598.62	522.02
598.813	482.96
599.006	518.69
599.199	471.49
599.392	494.07
599.586	476.3
599.779	413.91
599.972	407.8
600.165	515.55
600.358	455.38
600.551	527.58
600.744	473.52
600.937	486.85
601.13	502.03
601.323	510.92
601.516	524.8
601.709	539.43
601.902	546.09
602.095	568.86
602.288	577.19
602.481	570.53
602.674	556.83
602.867	598.3
603.06	606.44
603.252	539.61
603.445	611.07
603.638	560.16
603.831	553.31
604.024	500.36
604.216	499.44
604.409	453.53
604.602	356.15
604.795	462.6
604.987	402.25
605.18	420.95
605.373	404.65
605.565	373.55
605.758	384.85
605.951	290.99
606.143	331.72
606.336	394.29
606.528	347.64
606.721	307.28
606.913	325.98
607.106	408.73
607.298	393.18
607.491	364.11
607.683	340.42
607.876	312.46
608.068	295.43
608.261	345.78
608.453	387.99
608.646	365.59
608.838	329.68
609.03	381.14
609.223	330.42
609.415	279.88
609.607	304.5
609.8	315.24
609.992	282.66
610.184	328.38
610.376	305.06
610.569	331.53
610.761	273.22
610.953	235.08
611.145	300.43
611.337	270.99
611.529	305.06
611.722	335.05
611.914	245.63
612.106	286.17
612.298	291.54
612.49	332.64
612.682	430.2
612.874	407.43
613.066	343.01
613.258	363.74
613.45	337.27
613.642	370.41
613.834	366.15
614.026	338.38
614.218	378.18
614.41	368.56
614.602	345.6
614.793	416.13
614.985	369.11
615.177	329.49
615.369	337.27
615.561	298.76
615.753	314.68
615.944	366.33
616.136	319.68
616.328	240.26
616.52	247.48
616.711	232.49
616.903	282.47
617.095	288.03
617.286	223.97
617.478	266.74
617.67	209.72
617.861	274.7
618.053	279.69
618.244	253.59
618.436	247.67
618.627	223.79
618.819	253.78
619.01	354.12
619.202	291.17
619.393	332.27
619.585	319.13
619.776	358.37
619.968	295.06
620.159	325.98
620.351	303.02
620.542	296.91
620.733	339.12
620.925	302.28
621.116	344.67
621.307	343.75
621.499	363.93
621.69	373.37
621.881	300.06
622.072	350.23
622.264	275.07
622.455	335.23
622.646	357.63
622.837	282.1
623.028	348.93
623.22	324.87
623.411	339.49
623.602	275.44
623.793	268.96
623.984	289.32
624.175	324.12
624.366	324.87
624.557	307.46
624.748	272.47
624.939	317.46
625.13	383.92
625.321	338.01
625.512	339.31
625.703	386.33
625.894	449.27
626.085	383.92
626.276	408.73
626.467	422.61
626.658	488.33
626.848	485
627.039	439.09
627.23	440.2
627.421	462.6
627.612	466.12
627.802	518.14
627.993	478.33
628.184	563.68
628.375	512.21
628.565	516.84
628.756	408.36
628.947	434.09
629.137	495.74
629.328	415.95
629.519	338.01
629.709	415.02
629.9	341.16
630.09	357.82
630.281	356.71
630.471	320.05
630.662	313.2
630.852	297.65
631.043	357.26
631.233	380.03
631.424	362.08
631.614	320.05
631.805	413.54
631.995	426.68
632.185	387.81
632.376	425.94
632.566	469.45
632.756	485.74
632.947	469.63
633.137	446.49
633.327	583.49
633.518	511.84
633.708	561.46
633.898	584.23
634.088	495
634.279	483.33
634.469	481.48
634.659	538.69
634.849	544.8
635.039	489.63
635.229	561.83
635.42	485.93
635.61	533.87
635.8	447.79
635.99	503.33
636.18	488.89
636.37	443.9
636.56	498.14
636.75	445.94
636.94	401.51
637.13	336.9
637.32	423.17
637.51	311.72
637.7	362.08
637.89	339.68
638.079	348.75
638.269	290.8
638.459	294.32
638.649	321.16
638.839	406.88
639.029	416.87
639.218	372.44
639.408	361.89
639.598	423.91
639.788	464.82
639.977	445.75
640.167	451.68
640.357	473.34
640.546	464.08
640.736	519.06
640.926	570.16
641.115	574.79
641.305	511.84
641.495	568.49
641.684	569.23
641.874	586.08
642.063	570.34
642.253	638.65
642.442	631.43
642.632	631.43
642.821	568.12
643.011	569.23
643.2	561.64
643.39	596.63
643.579	587.74
643.768	537.21
643.958	536.65
644.147	507.03
644.336	470.19
644.526	552.39
644.715	489.26
644.904	537.58
645.094	540.35
645.283	470.19
645.472	527.39
645.661	482.22
645.851	441.31
646.04	477.41
646.229	440.57
646.418	544.42
646.607	531.84
646.796	549.42
646.986	594.78
647.175	655.69
647.364	686.97
647.553	728.26
647.742	705.3
647.931	749.73
648.12	726.03
648.309	750.47
648.498	789.35
648.687	890.98
648.876	771.57
649.065	784.16
649.254	833.22
649.443	777.68
649.632	932.08
649.82	847.48
650.009	843.4
650.198	744.92
650.387	798.79
650.576	819.89
650.765	837.48
650.953	817.49
651.142	748.25
651.331	737.7
651.52	710.3
651.708	715.11
651.897	685.31
652.086	577.01
652.274	522.02
652.463	548.31
652.652	545.72
652.84	488.52
653.029	507.58
653.217	495
653.406	497.59
653.594	482.96
653.783	503.7
653.972	506.66
654.16	585.89
654.349	566.27
654.537	644.76
654.725	761.02
654.914	755.65
655.102	762.5
655.291	835.44
655.479	895.79
655.667	990.95
655.856	1006.5
656.044	1059.45
656.232	1157.75
656.421	1144.97
656.609	1106.28
656.797	1159.04
656.986	1137.57
657.174	1147.75
657.362	1130.35
657.55	1240.87
657.738	1219.39
657.927	1201.62
658.115	1207.92
658.303	1177.37
658.491	1234.76
658.679	1202.92
658.867	1195.88
659.055	1106.1
659.243	1108.87
659.431	1030.75
659.619	949.85
659.807	913.38
659.995	876.73
660.183	788.98
660.371	694.38
660.559	733.44
660.747	652.54
660.935	607.74
661.123	548.31
661.311	567.94
661.499	533.69
661.687	526.84
661.875	611.07
662.062	609.22
662.25	624.21
662.438	671.79
662.626	699.19
662.813	696.97
663.001	789.35
663.189	748.06
663.377	829.33
663.564	874.5
663.752	960.77
663.94	957.81
664.127	979.29
664.315	1024.27
664.502	988.36
664.69	1042.23
664.878	1050.93
665.065	988.17
665.253	1017.05
665.44	998.72
665.628	1031.12
665.815	1050.37
666.003	1066.11
666.19	998.91
666.378	988.17
666.565	998.91
666.752	1074.07
666.94	1036.86
667.127	998.72
667.315	975.58
667.502	875.43
667.689	691.97
667.877	649.21
668.064	729.74
668.251	599.78
668.438	548.13
668.626	506.29
668.813	482.78
669	454.64
669.187	364.11
669.374	366.15
669.562	320.98
669.749	450.57
669.936	403.17
670.123	326.16
670.31	446.49
670.497	365.04
670.684	432.61
670.871	402.43
671.058	491.48
671.245	495.92
671.432	529.43
671.619	552.39
671.806	640.69
671.993	710.67
672.18	650.32
672.367	627.55
672.554	618.29
672.741	669.2
672.928	689.01
673.115	698.08
673.302	704.93
673.488	712.7
673.675	710.85
673.862	649.95
674.049	766.39
674.235	721.59
674.422	687.53
674.609	704.56
674.796	692.53
674.982	675.68
675.169	682.53
675.356	746.77
675.542	656.43
675.729	650.69
675.916	608.29
676.102	607.74
676.289	559.61
676.475	463.34
676.662	417.8
676.848	396.88
677.035	378.37
677.221	330.79
677.408	339.68
677.594	336.9
677.781	308.2
677.967	299.69
678.154	262.11
678.34	259.52
678.526	211.57
678.713	274.7
678.899	237.49
679.085	295.8
679.272	222.68
679.458	303.39
679.644	313.57
679.831	242.48
680.017	352.82
680.203	330.79
680.389	356.15
680.576	401.88
680.762	294.69
680.948	366.7
681.134	363.37
681.32	342.45
681.506	395.95
681.692	380.96
681.879	370.96
682.065	368.37
682.251	419.09
682.437	355.6
682.623	363.93
682.809	290.99
682.995	274.14
683.181	417.43
683.367	409.28
683.553	310.98
683.739	339.12
683.924	335.6
684.11	340.79
684.296	382.99
684.482	375.78
684.668	279.32
684.854	217.49
685.04	248.59
685.225	226.93
685.411	261.74
685.597	175.47
685.783	191.57
685.968	152.14
686.154	154.18
686.34	108.45
686.526	99.38
686.711	69.21
686.897	209.16
687.083	81.42
687.268	177.13
687.454	79.02
687.639	130.11
687.825	58.28
688.01	154.73
688.196	129.37
688.382	150.85
688.567	153.44
688.752	176.21
688.938	69.58
689.123	219.71
689.309	133.07
689.494	59.02
689.68	170.84
689.865	174.54
690.05	151.4
690.236	144.92
690.421	85.31
690.606	43.47
690.792	114.93
690.977	102.16
691.162	127.52
691.348	130.85
691.533	79.76
691.718	65.69
691.903	96.23
692.089	77.54
692.274	105.12
692.459	61.8
692.644	118.26
692.829	167.51
693.014	103.45
693.199	135.11
693.384	79.02
693.569	177.13
693.755	153.62
693.94	119.56
694.125	163.81
694.31	60.32
694.495	115.86
694.68	100.49
694.864	139.92
695.049	106.79
695.234	85.5
695.419	204.35
695.604	139
695.789	146.59
695.974	155.66
696.159	97.72
696.344	161.58
696.528	135.11
696.713	131.78
696.898	154.92
697.083	123.45
697.267	73.83
697.452	89.2
697.637	147.7
697.822	108.82
698.006	136.41
698.191	176.58
698.375	138.07
698.56	138.07
698.745	139.18
698.929	125.48
699.114	116.78
699.298	147.88
699.483	177.32
699.668	45.88
699.852	27.37
700.037	91.24
700.221	43.47
700.405	152.33
700.59	159.73
700.774	76.24
700.959	57.73
701.143	99.01
701.328	117.89
701.512	80.5
701.696	80.5
701.881	110.12
702.065	61.99
702.249	55.88
702.433	147.7
702.618	112.34
702.802	127.34
702.986	115.86
703.17	428.17
703.355	69.76
703.539	71.8
703.723	142.33
703.907	116.04
704.091	188.24
704.275	89.01
704.46	56.43
704.644	155.48
704.828	111.97
705.012	77.54
705.196	139.92
705.38	67.17
705.564	211.2
705.748	104.75
705.932	172.14
706.116	132.15
706.3	94.57
706.484	119.38
706.668	164.36
706.851	173.25
707.035	188.43
707.219	194.35
707.403	176.39
707.587	98.46
707.771	191.76
707.954	114.75
708.138	180.84
708.322	134
708.506	138.44
708.689	174.17
708.873	109.56
709.057	162.88
709.241	249.89
709.424	188.06
709.608	198.42
709.792	150.29
709.975	157.14
710.159	159.36
710.342	166.4
710.526	222.68
710.709	163.62
710.893	167.14
711.077	160.84
711.26	212.86
711.443	166.03
711.627	231.38
711.81	234.34
711.994	138.26
712.177	137.15
712.361	169.91
712.544	87.72
712.727	181.39
712.911	150.29
713.094	148.44
713.277	157.14
713.461	174.36
713.644	126.23
713.827	196.94
714.011	65.69
714.194	108.27
714.377	139.37
714.56	190.65
714.743	144.92
714.927	141.78
715.11	132.89
715.293	96.6
715.476	158.07
715.659	141.96
715.842	128.08
716.025	85.13
716.208	91.98
716.391	178.8
716.575	160.47
716.758	151.22
716.941	88.09
717.124	150.29
717.306	133.82
717.489	82.54
717.672	108.45
717.855	189.72
718.038	135.67
718.221	218.6
718.404	123.08
718.587	151.96
718.77	147.7
718.952	209.35
719.135	256.55
719.318	216.38
719.501	236.93
719.684	300.8
719.866	285.06
720.049	300.98
720.232	294.69
720.414	353.56
720.597	327.09
720.78	305.8
720.962	316.53
721.145	340.42
721.328	290.62
721.51	306.91
721.693	307.65
721.875	299.13
722.058	252.3
722.24	336.34
722.423	382.07
722.605	322.46
722.788	297.47
722.97	353.56
723.153	303.39
723.335	270.44
723.518	308.2
723.7	385.96
723.882	341.9
724.065	303.21
724.247	275.25
724.429	301.35
724.612	304.13
724.794	221.38
724.976	263.96
725.159	255.07
725.341	250.26
725.523	234.71
725.705	215.27
725.888	325.05
726.07	215.64
726.252	133.82
726.434	188.8
726.616	219.71
726.798	100.68
726.98	198.79
727.162	164.55
727.345	253.22
727.527	199.35
727.709	185.47
727.891	216.57
728.073	217.49
728.255	195.09
728.437	285.25
728.619	198.61
728.801	249.33
728.982	238.04
729.164	224.9
729.346	272.84
729.528	305.43
729.71	217.49
729.892	319.5
730.074	348.19
730.255	374.29
730.437	346.9
730.619	370.59
730.801	521.1
730.983	406.51
731.164	500.18
731.346	510.18
731.528	425.94
731.709	475.56
731.891	417.24
732.073	443.9
732.254	499.44
732.436	466.3
732.617	405.02
732.799	481.11
732.981	452.23
733.162	478.33
733.344	427.43
733.525	462.04
733.707	450.57
733.888	467.6
734.07	465.19
734.251	450.75
734.433	429.83
734.614	436.68
734.795	476.3
734.977	479.45
735.158	414.65
735.34	463.34
735.521	394.84
735.702	329.31
735.883	349.12
736.065	305.61
736.246	326.72
736.427	365.22
736.609	324.68
736.79	273.4
736.971	241.74
737.152	246.56
737.333	268.03
737.514	228.6
737.696	282.1
737.877	178.25
738.058	178.62
738.239	209.72
738.42	224.71
738.601	202.87
738.782	240.26
738.963	310.98
739.144	240.82
739.325	318.02
739.506	280.44
739.687	239.71
739.868	358.93
740.049	312.83
740.23	315.79
740.411	372.26
740.592	429.28
740.773	405.02
740.953	459.64
741.134	467.23
741.315	465.56
741.496	530.73
741.677	501.66
741.857	544.8
742.038	496.48
742.219	519.62
742.4	583.67
742.58	568.49
742.761	657.72
742.942	692.71
743.122	728.44
743.303	752.69
743.484	714.37
743.664	750.84
743.845	779.91
744.025	779.16
744.206	730.66
744.386	703.82
744.567	628.47
744.748	695.67
744.928	773.06
745.108	736.59
745.289	647.36
745.469	687.9
745.65	732.7
745.83	638.28
746.011	636.25
746.191	694.38
746.371	584.23
746.552	629.58
746.732	590.52
746.912	649.58
747.093	594.22
747.273	569.97
747.453	491.48
747.633	518.14
747.814	385.22
747.994	433.9
748.174	440.75
748.354	365.96
748.534	366.52
748.715	371.52
748.895	389.84
749.075	300.24
749.255	352.63
749.435	284.69
749.615	293.76
749.795	297.84
749.975	270.07
750.155	264.51
750.335	252.11
750.515	257.29
750.695	246.37
750.875	247.48
751.055	268.22
751.235	244.52
751.415	283.21
751.595	254.52
751.775	312.46
751.954	289.32
752.134	348.01
752.314	383.92
752.494	365.78
752.674	324.31
752.854	396.69
753.033	367.26
753.213	366.52
753.393	390.96
753.572	441.12
753.752	460.93
753.932	532.95
754.111	549.05
754.291	599.59
754.471	626.25
754.65	626.44
754.83	670.31
755.01	686.6
755.189	707.52
755.369	680.68
755.548	746.77
755.728	716.59
755.907	726.22
756.087	693.64
756.266	766.39
756.446	690.3
756.625	714.56
756.804	902.83
756.984	720.85
757.163	713.82
757.343	769.17
757.522	696.97
757.701	762.69
757.881	809.9
758.06	716.96
758.239	700.67
758.418	790.09
758.598	794.9
758.777	771.57
758.956	725.66
759.135	724.92
759.315	703.45
759.494	735.85
759.673	608.48
759.852	503.51
760.031	470.37
760.21	441.49
760.389	401.69
760.568	395.58
760.748	413.73
760.927	378.92
761.106	356.15
761.285	366.89
761.464	308.57
761.643	348.75
761.822	324.31
762	291.36
762.179	231.56
762.358	268.96
762.537	247.48
762.716	250.07
762.895	233.97
763.074	259.52
763.253	298.39
763.431	236
763.61	288.95
763.789	266.92
763.968	266.55
764.147	319.87
764.325	323.57
764.504	328.75
764.683	315.05
764.861	401.88
765.04	397.81
765.219	393.73
765.397	401.32
765.576	509.81
765.755	543.13
765.933	510.73
766.112	578.49
766.29	591.45
766.469	621.44
766.647	661.61
766.826	687.71
767.004	743.99
767.183	781.76
767.361	816.93
767.54	882.09
767.718	914.49
767.897	793.23
768.075	806.19
768.253	789.35
768.432	825.63
768.61	777.5
768.788	844.7
768.967	832.48
769.145	802.86
769.323	841
769.501	782.5
769.68	804.71
769.858	886.17
770.036	823.97
770.214	934.3
770.393	830.44
770.571	812.12
770.749	768.61
770.927	704.93
771.105	847.29
771.283	753.06
771.461	792.31
771.639	824.71
771.817	712.7
771.995	693.08
772.173	691.6
772.351	565.53
772.529	582.56
772.707	550.72
772.885	431.87
773.063	557.01
773.241	486.48
773.419	420.95
773.597	461.3
773.775	371.33
773.953	375.4
774.131	365.04
774.308	385.96
774.486	335.79
774.664	286.73
774.842	222.86
775.02	256.18
775.197	259.52
775.375	203.24
775.553	133.26
775.73	100.31
775.908	196.94
776.086	144.55
776.263	126.41
776.441	148.26
776.619	40.51
776.796	92.16
776.974	128.82
777.151	68.28
777.329	79.02
777.506	128.26
777.684	35.14
777.861	106.97
778.039	77.72
778.216	97.53
778.394	109.19
778.571	105.68
778.749	44.21
778.926	79.57
779.103	75.32
779.281	76.98
779.458	140.29
779.635	91.42
779.813	85.87
779.99	59.76
780.167	51.99
780.345	141.22
780.522	169.91
780.699	55.32
780.876	71.24
781.054	83.65
781.231	92.72
781.408	107.53
781.585	89.76
781.762	60.51
781.939	69.76
782.116	110.49
782.294	104.01
782.471	57.17
782.648	71.8
782.825	85.5
783.002	99.2
783.179	89.01
783.356	40.7
783.533	101.23
783.71	79.57
783.887	105.68
784.064	131.59
784.24	84.57
784.417	86.05
784.594	62.54
784.771	76.24
784.948	134.74
785.125	46.62
785.302	63.65
785.478	202.31
785.655	67.73
785.832	41.44
786.009	91.05
786.185	85.31
786.362	110.67
786.539	61.62
786.715	204.35
786.892	107.9
787.069	166.03
787.245	106.97
787.422	78.65
787.599	90.5
787.775	82.35
787.952	66.98
788.128	145.29
788.305	52.92
788.481	47.92
788.658	45.7
788.834	92.72
789.011	56.99
789.187	101.05
789.364	40.88
789.54	119.56
789.717	94.75
789.893	-7.25
790.069	89.01
790.246	15.52
790.422	37.55
790.598	37.18
790.775	69.02
790.951	68.1
791.127	45.14
791.304	28.48
791.48	11.45
791.656	52.36
791.832	50.88
792.008	8.48
792.185	45.33
792.361	32.74
792.537	52.54
792.713	86.79
792.889	75.69
793.065	76.43
793.241	51.06
793.417	47.73
793.593	8.86
793.769	61.8
793.945	0.15
794.121	42.18
794.297	84.76
794.473	58.1
794.649	120.86
794.825	16.82
795.001	60.14
795.177	0.89
795.353	84.02
795.529	97.53
795.705	72.35
795.881	41.44
796.056	67.73
796.232	31.81
796.408	112.16
796.584	43.66
796.76	88.09
796.935	59.76
797.111	38.29
797.287	31.63
797.462	92.35
797.638	114.01
797.814	61.25
797.989	36.62
798.165	84.02
798.341	175.28
798.516	32.74
798.692	92.35
798.867	93.46
799.043	76.98
799.218	130.85
799.394	62.17
799.569	195.83
799.745	79.2
799.92	98.64
800.096	71.24
800.271	94.75
800.447	186.58
800.622	84.39
800.797	6.08
800.973	33.48
801.148	69.76
801.323	96.23
801.499	17.93
801.674	45.51
801.849	92.35
802.025	80.31
802.2	125.48
802.375	110.12
802.55	89.01
802.725	26.26
802.901	84.94
803.076	66.61
803.251	71.61
803.426	65.87
803.601	75.69
803.776	30.51
803.951	23.48
804.127	31.07
804.302	59.76
804.477	73.09
804.652	71.61
804.827	37.18
805.002	7.56
805.177	67.17
805.352	126.6
805.526	69.76
805.701	118.26
805.876	86.42
806.051	34.4
806.226	85.5
806.401	97.16
806.576	59.95
806.751	66.24
806.925	26.07
807.1	72.72
807.275	13.11
807.45	52.73
807.625	205.09
807.799	77.54
807.974	30.89
808.149	10.71
808.323	52.92
808.498	59.39
808.673	62.91
808.847	3.67
809.022	42.18
809.197	86.42
809.371	44.03
809.546	74.76
809.72	63.84
809.895	59.39
810.069	-49.09
810.244	104.75
810.418	7
810.593	101.42
810.767	79.2
810.942	82.35
811.116	136.78
811.29	41.81
811.465	37.18
811.639	79.94
811.814	113.64
811.988	114.75
812.162	59.02
812.337	10.71
812.511	93.27
812.685	68.47
812.859	46.44
813.034	51.99
813.208	73.65
813.382	17.74
813.556	64.76
813.73	81.98
813.905	15.33
814.079	36.07
814.253	66.06
814.427	120.86
814.601	44.4
814.775	74.95
814.949	62.36
815.123	107.34
815.297	50.32
815.471	80.13
815.645	69.21
815.819	84.94
815.993	104.2
816.167	67.73
816.341	72.54
816.515	105.31
816.689	26.07
816.863	71.24
817.037	83.65
817.21	91.24
817.384	79.76
817.558	125.3
817.732	191.2
817.906	130.48
818.079	83.28
818.253	159.92
818.427	126.41
818.601	165.84
818.774	195.83
818.948	151.4
819.122	230.82
819.295	150.66
819.469	145.85
819.643	138.26
819.816	97.35
819.99	132.15
820.163	106.42
820.337	94.38
820.511	176.02
820.684	122.71
820.858	171.58
821.031	68.84
821.205	112.16
821.378	128.26
821.551	105.12
821.725	109.56
821.898	87.9
822.072	114.56
822.245	155.1
822.418	122.15
822.592	21.07
822.765	26.07
822.938	134.93
823.112	36.99
823.285	106.6
823.458	65.5
823.631	34.03
823.805	61.06
823.978	68.1
824.151	46.62
824.324	97.9
824.497	69.21
824.671	74.95
824.844	40.88
825.017	51.62
825.19	-10.4
825.363	-32.24
825.536	24.78
825.709	35.51
825.882	52.36
826.055	45.51
826.228	-0.59
826.401	25.33
826.574	34.96
826.747	36.07
826.92	70.32
827.093	80.13
827.266	59.39
827.439	49.21
827.612	44.4
827.785	31.07
827.957	59.95
828.13	40.51
828.303	33.66
828.476	44.58
828.649	9.97
828.821	92.72
828.994	62.36
829.167	30.89
829.34	109.01
829.512	52.54
829.685	99.38
829.858	78.83
830.03	87.9
830.203	114.01
830.375	145.29
830.548	67.36
830.721	44.21
830.893	36.62
831.066	48.84
831.238	86.61
831.411	135.67
831.583	55.69
831.756	86.24
831.928	32.74
832.101	49.58
832.273	35.7
832.446	27.92
832.618	60.51
832.79	39.59
832.963	17.19
833.135	14.78
833.307	21.26
833.48	59.58
833.652	49.4
833.824	101.97
833.997	55.69
834.169	50.14
834.341	54.58
834.513	12
834.686	27.18
834.858	50.69
835.03	51.25
835.202	-13.17
835.374	6.82
835.546	80.31
835.718	14.41
835.891	58.28
836.063	44.21
836.235	65.87
836.407	32.74
836.579	48.29
836.751	-26.69
836.923	32
837.095	87.9
837.267	47.92
837.439	59.39
837.611	-2.62
837.782	45.33
837.954	55.51
838.126	58.1
838.298	100.68
838.47	97.35
838.642	-15.4
838.814	95.12
838.985	12.56
839.157	-11.69
839.329	11.26
839.501	96.79
839.672	-21.51
839.844	82.35
840.016	11.82
840.188	77.35
840.359	60.32
840.531	51.43
840.702	-14.84
840.874	130.3
841.046	10.89
841.217	20.33
841.389	42.36
841.56	51.43
841.732	-7.62
841.903	64.02
842.075	-5.77
842.246	25.89
842.418	94.2
842.589	46.62
842.761	74.39
842.932	48.84
843.104	110.49
843.275	61.62
843.446	21.26
843.618	56.25
843.789	81.24
843.96	-3.73
844.132	51.62
844.303	69.21
844.474	35.51
844.646	51.43
844.817	-39.83
844.988	28.11
845.159	113.82
845.331	89.39
845.502	9.41
845.673	57.91
845.844	-14.66
846.015	104.94
846.186	27.92
846.357	58.28
846.528	59.21
846.7	30.51
846.871	39.4
847.042	73.83
847.213	70.13
847.384	204.9
847.555	88.09
847.726	16.08
847.897	104.57
848.067	5.71
848.238	77.35
848.409	73.09
848.58	80.87
848.751	82.17
848.922	87.9
849.093	83.28
849.264	42.73
849.434	106.6
849.605	25.15
849.776	30.33
849.947	2.93
850.117	50.69
850.288	77.91
850.459	33.66
850.63	113.27
850.8	104.94
850.971	131.78
851.142	46.99
851.312	-13.55
851.483	9.6
851.653	51.06
851.824	86.79
851.995	27.55
852.165	85.87
852.336	50.69
852.506	103.64
852.677	86.24
852.847	56.8
853.018	76.8
853.188	29.4
853.358	102.53
853.529	92.72
853.699	91.42
853.87	77.72
854.04	19.41
854.21	46.99
854.381	45.14
854.551	126.6
854.721	50.32
854.892	87.35
855.062	2.56
855.232	14.04
855.402	45.14
855.573	67.73
855.743	85.31
855.913	35.14
856.083	19.78
856.253	59.76
856.423	18.11
856.594	31.63
856.764	78.28
856.934	81.24
857.104	51.25
857.274	118.45
857.444	29.4
857.614	46.25
857.784	80.68
857.954	40.7
858.124	2.19
858.294	-3.18
858.464	118.08
858.634	37.36
858.804	55.14
858.974	29.22
859.143	8.11
859.313	-1.14
859.483	82.72
859.653	-5.21
859.823	81.24
859.993	28.11
860.162	85.13
860.332	96.23
860.502	32.55
860.672	87.16
860.841	98.46
861.011	99.01
861.181	44.77
861.35	166.4
861.52	67.73
861.69	97.9
861.859	85.13
862.029	69.76
862.198	94.38
862.368	83.28
862.538	96.05
862.707	122.52
862.877	107.71
863.046	135.11
863.216	77.17
863.385	126.97
863.555	131.96
863.724	177.88
863.893	113.27
864.063	217.49
864.232	195.83
864.402	107.9
864.571	74.76
864.74	141.96
864.91	89.01
865.079	156.4
865.248	153.44
865.418	161.58
865.587	155.29
865.756	188.61
865.925	223.05
866.094	262.85
866.264	211.75
866.433	161.03
866.602	210.27
866.771	144.92
866.94	199.35
867.109	174.36
867.278	200.09
867.448	168.8
867.617	161.4
867.786	223.23
867.955	184.17
868.124	135.67
868.293	195.28
868.462	159.36
868.631	220.64
868.8	270.81
868.969	162.51
869.137	209.16
869.306	200.28
869.475	196.94
869.644	118.45
869.813	125.67
869.982	176.39
870.151	112.34
870.319	118.82
870.488	134.93
870.657	127.52
870.826	107.71
870.995	93.27
871.163	104.2
871.332	129.56
871.501	136.78
871.669	76.43
871.838	142.33
872.007	131.22
872.175	128.08
872.344	63.47
872.512	23.3
872.681	100.12
872.85	103.27
873.018	96.42
873.187	55.88
873.355	118.45
873.524	48.29
873.692	49.4
873.861	86.05
874.029	47.55
874.197	85.87
874.366	74.39
874.534	60.32
874.703	-13.17
874.871	67.36
875.039	24.04
875.208	34.96
875.376	91.79
875.544	114.56
875.713	47.36
875.881	65.32
876.049	68.84
876.217	77.17
876.386	50.88
876.554	55.32
876.722	118.63
876.89	131.96
877.058	65.87
877.226	48.47
877.395	39.03
877.563	49.77
877.731	18.48
877.899	35.33
878.067	41.62
878.235	21.63
878.403	39.03
878.571	67.73
878.739	65.5
878.907	145.85
879.075	87.35
879.243	46.44
879.411	12.37
879.579	43.47
879.747	63.1
879.914	44.95
880.082	54.03
880.25	46.07
880.418	79.57
880.586	51.06
880.754	97.16
880.921	100.12
881.089	74.02
881.257	107.9
881.425	69.58
881.592	104.01
881.76	78.83
881.928	151.96
882.095	125.11
882.263	135.3
882.431	62.36
882.598	168.62
882.766	74.39
882.933	110.86
883.101	70.87
883.269	103.45
883.436	126.23
883.604	90.68
883.771	197.87
883.939	88.09
884.106	71.61
884.273	159.55
884.441	114.01
884.608	125.67
884.776	144
884.943	218.42
885.11	94.94
885.278	107.71
885.445	126.41
885.613	139.74
885.78	113.64
885.947	130.11
886.114	161.77
886.282	187.13
886.449	121.97
886.616	179.91
886.783	110.67
886.951	120.86
887.118	101.23
887.285	192.69
887.452	126.23
887.619	108.82
887.786	46.07
887.953	100.12
888.12	95.86
888.287	166.21
888.455	157.7
888.622	135.11
888.789	128.82
888.956	119.56
889.123	89.39
889.29	84.39
889.456	103.64
889.623	106.6
889.79	114.93
889.957	154.55
890.124	117.71
890.291	132.15
890.458	82.35
890.625	197.68
890.791	121.23
890.958	67.54
891.125	137.52
891.292	99.38
891.459	90.31
891.625	101.23
891.792	105.86
891.959	29.4
892.125	45.33
892.292	54.03
892.459	91.42
892.625	107.71
892.792	121.97
892.959	32.92
893.125	164.73
893.292	18.3
893.458	81.24
893.625	69.02
893.791	54.03
893.958	40.14
894.124	96.98
894.291	12.56
894.457	34.96
894.624	41.81
894.79	27.92
894.957	45.88
895.123	42.36
895.289	72.54
895.456	121.97
895.622	49.4
895.788	31.81
895.955	37.36
896.121	104.94
896.287	180.1
896.454	35.33
896.62	20.33
896.786	33.66
896.952	64.76
897.119	53.47
897.285	55.32
897.451	-6.88
897.617	86.98
897.783	71.61
897.949	30.33
898.115	46.62
898.281	-1.51
898.448	83.83
898.614	10.15
898.78	30.51
898.946	46.44
899.112	97.9
899.278	1.82
899.444	38.11
899.61	115.67
899.775	47.73
899.941	48.29
900.107	14.59
900.273	42.73
900.439	53.1
900.605	39.4
900.771	56.8
900.937	62.36
901.102	81.98
901.268	78.28
901.434	22.92
901.6	73.83
901.766	57.73
901.931	92.35
902.097	51.99
902.263	68.28
902.428	76.8
902.594	2.56
902.76	41.07
902.925	37.92
903.091	98.27
903.256	9.23
903.422	106.6
903.588	3.49
903.753	10.34
903.919	62.36
904.084	62.54
904.25	48.47
904.415	117.71
904.581	40.7
904.746	126.23
904.912	39.22
905.077	17.56
905.242	-0.4
905.408	10.89
905.573	42.36
905.738	28.48
905.904	341.9
906.069	341.9
