Data from FLMT087451__12__13-58-52-582.txt Node

Date: Tue Jun 04 13:58:52 JST 2024
User: power
Spectrometer: FLMT08745
Trigger mode: 0
Integration Time (sec): 2.000000E-1
Scans to average: 11
Electric dark correction enabled: true
Nonlinearity correction enabled: false
Boxcar width: 0
XAxis mode: Wavelengths
Number of Pixels in Spectrum: 3648
>>>>>Begin Spectral Data<<<<<
194.923	-318.69
195.148	-318.69
195.372	-318.69
195.597	-328.69
195.821	-336.84
196.046	81.36
196.271	-48.97
196.495	-105.61
196.72	-14.72
196.944	-29.53
197.169	3.24
197.393	101.91
197.618	7.13
197.842	42.12
198.067	14.9
198.291	-117.09
198.516	65.26
198.74	-99.51
198.964	116.54
199.189	71.92
199.413	146.9
199.637	122.09
199.862	39.34
200.086	42.3
200.31	216.69
200.535	34.9
200.759	224.47
200.983	-39.34
201.207	-14.16
201.432	16.94
201.656	166.89
201.88	58.78
202.104	0.46
202.328	94.14
202.552	100.8
202.777	69.33
203.001	70.44
203.225	-0.09
203.449	-77.85
203.673	67.48
203.897	46
204.121	41.93
204.345	115.43
204.569	-23.97
204.793	63.41
205.017	83.95
205.241	119.5
205.465	18.23
205.689	8.24
205.912	38.78
206.136	-30.45
206.36	38.41
206.584	84.14
206.808	-45.08
207.032	105.8
207.255	119.87
207.479	156.52
207.703	71.55
207.927	42.3
208.15	-30.08
208.374	59.52
208.598	-6.94
208.822	65.44
209.045	46.93
209.269	86.55
209.492	252.23
209.716	188.55
209.94	104.13
210.163	149.86
210.387	165.97
210.61	150.6
210.834	45.63
211.057	68.77
211.281	-26.01
211.504	11.76
211.728	56.19
211.951	233.72
212.175	236.13
212.398	72.11
212.622	53.22
212.845	249.83
213.068	51.19
213.292	85.44
213.515	13.05
213.738	20.46
213.962	28.23
214.185	-4.17
214.408	83.95
214.631	155.41
214.855	88.03
215.078	26.57
215.301	114.13
215.524	74.7
215.747	128.38
215.971	52.48
216.194	61.55
216.417	71
216.64	131.9
216.863	734.49
217.086	147.45
217.309	13.79
217.532	138.75
217.755	-4.35
217.978	129.87
218.201	184.85
218.424	197.99
218.647	36.01
218.87	71
219.093	145.05
219.316	178.74
219.539	82.1
219.762	37.49
219.985	70.07
220.207	-71.55
220.43	97.1
220.653	131.9
220.876	52.85
221.099	206.88
221.321	85.25
221.544	64.33
221.767	166.89
221.99	68.77
222.212	138.94
222.435	147.08
222.658	187.44
222.88	32.12
223.103	237.98
223.326	-4.17
223.548	148.75
223.771	93.58
223.993	87.47
224.216	65.44
224.438	103.76
224.661	105.06
224.883	152.82
225.106	324.8
225.328	78.22
225.551	192.62
225.773	74.51
225.996	106.54
226.218	148.19
226.44	175.96
226.663	160.78
226.885	64.7
227.108	137.64
227.33	160.23
227.552	92.1
227.774	102.47
227.997	113.57
228.219	159.49
228.441	180.04
228.663	255.57
228.886	93.58
229.108	84.88
229.33	89.51
229.552	42.86
229.774	143.01
229.996	111.17
230.219	166.89
230.441	95.43
230.663	146.71
230.885	76.92
231.107	89.69
231.329	120.79
231.551	200.21
231.773	94.69
231.995	141.34
232.217	112.09
232.439	86.73
232.661	101.91
232.883	111.91
233.105	90.8
233.326	67.66
233.548	193.92
233.77	88.95
233.992	264.08
234.214	58.78
234.436	68.59
234.657	124.87
234.879	334.99
235.101	28.23
235.323	138.01
235.544	136.72
235.766	165.97
235.988	217.25
236.21	201.14
236.431	227.43
236.653	205.4
236.874	270.56
237.096	195.22
237.318	15.46
237.539	185.4
237.761	115.06
237.982	105.61
238.204	281.67
238.425	84.7
238.647	133.38
238.868	83.95
239.09	187.44
239.311	32.67
239.533	141.16
239.754	239.28
239.975	110.43
240.197	91.73
240.418	128.76
240.64	156.71
240.861	182.63
241.082	229.28
241.304	174.85
241.525	115.24
241.746	114.32
241.967	9.35
242.189	134.86
242.41	243.35
242.631	360.53
242.852	93.95
243.073	237.42
243.294	116.35
243.516	179.29
243.737	129.68
243.958	67.29
244.179	142.27
244.4	321.66
244.621	84.88
244.842	145.97
245.063	262.42
245.284	164.67
245.505	184.11
245.726	145.79
245.947	257.23
246.168	103.39
246.389	113.76
246.61	223.54
246.831	245.2
247.052	147.82
247.272	193.18
247.493	131.35
247.714	248.35
247.935	88.58
248.156	233.91
248.376	227.24
248.597	296.29
248.818	124.31
249.039	109.69
249.259	139.12
249.48	71.37
249.701	241.13
249.921	93.4
250.142	82.1
250.363	192.99
250.583	135.98
250.804	199.66
251.025	255.57
251.245	235.02
251.466	240.39
251.686	128.57
251.907	89.69
252.127	225.95
252.348	172.07
252.568	160.23
252.789	222.8
253.009	218.17
253.23	337.76
253.45	177.81
253.67	194.85
253.891	91.73
254.111	257.97
254.331	172.63
254.552	165.23
254.772	167.63
254.992	164.48
255.213	101.17
255.433	213.73
255.653	146.9
255.873	169.67
256.093	246.5
256.314	95.62
256.534	55.63
256.754	283.52
256.974	127.83
257.194	107.28
257.414	122.83
257.634	161.71
257.855	130.98
258.075	95.43
258.295	129.5
258.515	99.69
258.735	199.47
258.955	141.34
259.175	102.28
259.395	168.74
259.615	193.73
259.835	184.85
260.054	141.9
260.274	218.73
260.494	223.54
260.714	346.65
260.934	183.55
261.154	188.74
261.374	105.24
261.593	135.6
261.813	36.75
262.033	139.86
262.253	151.53
262.472	174.3
262.692	188.55
262.912	183
263.132	222.98
263.351	247.98
263.571	300.37
263.791	194.47
264.01	291.48
264.23	166.34
264.449	93.95
264.669	314.07
264.888	273.52
265.108	149.49
265.328	276.86
265.547	147.45
265.767	182.26
265.986	68.96
266.205	223.72
266.425	153.56
266.644	192.44
266.864	69.51
267.083	230.39
267.303	156.89
267.522	176.89
267.741	178.55
267.961	232.8
268.18	80.99
268.399	236.68
268.618	177.81
268.838	224.65
269.057	151.16
269.276	164.3
269.495	195.22
269.715	302.4
269.934	81.55
270.153	226.13
270.372	61
270.591	201.32
270.81	252.79
271.029	204.1
271.249	201.32
271.468	111.35
271.687	240.57
271.906	190.59
272.125	244.09
272.344	211.88
272.563	152.27
272.782	126.35
273.001	113.39
273.22	162.26
273.439	197.99
273.657	187.44
273.876	223.72
274.095	73.96
274.314	243.9
274.533	285.37
274.752	145.42
274.971	226.5
275.189	351.46
275.408	249.83
275.627	150.04
275.846	229.46
276.064	148.56
276.283	47.11
276.502	197.62
276.72	79.33
276.939	100.25
277.158	117.28
277.376	128.38
277.595	181.15
277.814	101.91
278.032	208.54
278.251	63.96
278.469	86.73
278.688	153.38
278.906	338.5
279.125	173.56
279.343	121.72
279.562	132.27
279.78	12.68
279.999	182.81
280.217	157.82
280.435	124.31
280.654	64.7
280.872	191.33
281.091	169.3
281.309	184.11
281.527	262.6
281.746	102.47
281.964	93.77
282.182	162.45
282.4	156.89
282.619	303.88
282.837	276.12
283.055	111.35
283.273	93.03
283.491	141.9
283.71	193.55
283.928	115.06
284.146	144.31
284.364	140.42
284.582	166.15
284.8	177.81
285.018	168.19
285.236	60.26
285.454	248.9
285.672	204.29
285.89	111.35
286.108	64.33
286.326	168.74
286.544	180.22
286.762	92.66
286.98	46.93
287.198	274.45
287.416	394.6
287.634	220.02
287.851	149.67
288.069	160.6
288.287	163.19
288.505	99.32
288.723	173.56
288.94	207.25
289.158	130.98
289.376	281.48
289.594	132.46
289.811	55.26
290.029	115.61
290.247	298.15
290.464	183.55
290.682	67.48
290.9	168
291.117	167.45
291.335	125.61
291.552	42.12
291.77	172.63
291.987	103.58
292.205	146.16
292.422	158.01
292.64	224.1
292.857	41.93
293.075	144.31
293.292	96.36
293.51	166.71
293.727	130.05
293.945	136.9
294.162	141.71
294.379	157.08
294.597	149.86
294.814	152.64
295.031	163.93
295.249	201.69
295.466	136.35
295.683	131.72
295.9	179.85
296.118	87.84
296.335	35.27
296.552	168.56
296.769	225.39
296.986	177.44
297.204	117.65
297.421	91.36
297.638	153.93
297.855	183
298.072	57.85
298.289	173.74
298.506	77.29
298.723	180.96
298.94	169.85
299.157	151.53
299.374	147.08
299.591	233.17
299.808	51
300.025	46.37
300.242	91.54
300.459	181.15
300.676	69.7
300.893	89.69
301.109	188.37
301.326	226.5
301.543	186.88
301.76	83.77
301.977	83.58
302.193	87.47
302.41	242.79
302.627	62.48
302.844	112.46
303.06	138.75
303.277	168.37
303.494	202.07
303.71	190.22
303.927	251.68
304.144	162.08
304.36	239.28
304.577	188
304.793	289.63
305.01	176.89
305.227	233.17
305.443	275.19
305.66	471.42
305.876	139.12
306.093	218.36
306.309	248.35
306.526	115.43
306.742	307.03
306.958	236.5
307.175	225.76
307.391	159.3
307.608	267.23
307.824	288.52
308.04	259.27
308.257	170.41
308.473	361.83
308.689	181.52
308.905	272.97
309.122	155.04
309.338	93.03
309.554	227.24
309.77	214.28
309.986	226.32
310.203	34.53
310.419	190.59
310.635	236.68
310.851	113.95
311.067	314.62
311.283	210.03
311.499	91.73
311.715	197.07
311.931	259.64
312.147	233.35
312.363	99.32
312.579	248.35
312.795	240.76
313.011	95.06
313.227	110.06
313.443	289.26
313.659	187.81
313.875	120.98
314.091	220.39
314.307	207.99
314.523	100.43
314.738	136.35
314.954	272.41
315.17	86.73
315.386	153.01
315.602	94.69
315.817	115.98
316.033	136.35
316.249	118.2
316.465	150.6
316.68	108.95
316.896	169.85
317.112	58.96
317.327	66.55
317.543	339.98
317.758	106.91
317.974	175.04
318.19	192.25
318.405	115.06
318.621	128.76
318.836	94.51
319.052	126.9
319.267	182.81
319.483	99.32
319.698	189.29
319.914	95.99
320.129	90.06
320.344	223.72
320.56	184.85
320.775	280.37
320.99	197.25
321.206	174.67
321.421	207.43
321.636	109.5
321.852	156.15
322.067	132.46
322.282	70.63
322.498	64.33
322.713	195.59
322.928	235.94
323.143	108.21
323.358	131.9
323.574	238.53
323.789	105.24
324.004	104.13
324.219	118.94
324.434	230.2
324.649	112.46
324.864	201.88
325.079	130.05
325.294	98.21
325.509	76.36
325.724	193.92
325.939	112.83
326.154	177.07
326.369	374.79
326.584	135.98
326.799	75.81
327.014	264.08
327.229	97.47
327.444	195.03
327.659	123.2
327.873	185.4
328.088	217.06
328.303	144.49
328.518	84.14
328.733	113.02
328.947	189.29
329.162	97.28
329.377	170.96
329.591	220.39
329.806	120.98
330.021	99.51
330.235	269.64
330.45	190.59
330.665	39.15
330.879	137.09
331.094	224.28
331.309	175.78
331.523	227.98
331.738	182.26
331.952	237.05
332.167	339.61
332.381	202.44
332.596	310.18
332.81	264.27
333.025	286.48
333.239	387.19
333.453	282.59
333.668	335.91
333.882	353.87
334.097	264.27
334.311	242.61
334.525	255.57
334.74	198.92
334.954	108.58
335.168	270.75
335.382	185.96
335.597	133.75
335.811	90.8
336.025	169.67
336.239	61.74
336.453	179.85
336.668	169.11
336.882	98.02
337.096	184.29
337.31	193.18
337.524	207.99
337.738	154.49
337.952	136.72
338.166	136.9
338.38	156.52
338.594	215.95
338.808	114.69
339.022	267.04
339.236	147.64
339.45	115.43
339.664	323.69
339.878	179.29
340.092	78.22
340.306	33.79
340.52	159.67
340.734	220.39
340.948	110.24
341.161	174.67
341.375	143.57
341.589	125.98
341.803	143.01
342.017	142.27
342.23	108.58
342.444	237.98
342.658	135.79
342.871	181.15
343.085	85.81
343.299	54.15
343.512	121.54
343.726	59.89
343.94	163.56
344.153	188.92
344.367	217.8
344.58	86.18
344.794	88.03
345.008	56
345.221	64.89
345.435	172.26
345.648	145.42
345.862	70.26
346.075	125.42
346.288	97.28
346.502	216.5
346.715	166.52
346.929	-13.24
347.142	159.86
347.355	133.57
347.569	172.63
347.782	181.52
347.995	153.93
348.209	102.28
348.422	34.53
348.635	156.15
348.848	184.85
349.062	70.63
349.275	298.15
349.488	219.84
349.701	235.57
349.914	-4.91
350.128	182.07
350.341	150.23
350.554	37.3
350.767	132.83
350.98	201.14
351.193	140.05
351.406	88.95
351.619	189.85
351.832	206.32
352.045	132.27
352.258	91.54
352.471	162.08
352.684	127.46
352.897	192.62
353.11	129.31
353.323	224.84
353.536	67.85
353.748	301.66
353.961	118.02
354.174	162.82
354.387	200.95
354.6	104.69
354.813	146.34
355.025	200.58
355.238	191.14
355.451	152.64
355.664	113.57
355.876	226.5
356.089	241.31
356.302	118.02
356.514	135.98
356.727	103.76
356.94	78.03
357.152	59.52
357.365	79.7
357.577	43.04
357.79	49.15
358.002	-23.97
358.215	42.67
358.427	96.17
358.64	199.47
358.852	50.26
359.065	46.74
359.277	75.25
359.49	229.09
359.702	215.21
359.915	102.84
360.127	49.34
360.339	87.84
360.552	66.18
360.764	126.9
360.976	147.08
361.189	42.86
361.401	227.61
361.613	234.83
361.825	8.79
362.038	129.31
362.25	202.07
362.462	109.69
362.674	115.24
362.886	258.16
363.099	175.22
363.311	177.26
363.523	166.15
363.735	200.58
363.947	127.64
364.159	180.78
364.371	204.47
364.583	86.92
364.795	97.65
365.007	154.86
365.219	71.55
365.431	129.87
365.643	76.36
365.855	53.78
366.067	8.24
366.279	85.62
366.491	108.58
366.703	130.24
366.914	87.29
367.126	92.84
367.338	215.58
367.55	145.42
367.762	153.75
367.974	85.81
368.185	47.3
368.397	148.75
368.609	170.78
368.82	115.43
369.032	193.55
369.244	87.1
369.456	206.51
369.667	138.57
369.879	209.47
370.09	68.22
370.302	145.23
370.514	216.69
370.725	183.55
370.937	47.86
371.148	82.29
371.36	145.05
371.571	118.02
371.783	132.09
371.994	150.23
372.206	147.08
372.417	338.32
372.629	145.42
372.84	84.51
373.051	85.07
373.263	208.36
373.474	136.72
373.685	58.22
373.897	121.91
374.108	159.67
374.319	45.08
374.531	109.87
374.742	180.22
374.953	86.36
375.164	28.42
375.375	92.47
375.587	64.89
375.798	152.27
376.009	187.44
376.22	228.35
376.431	134.68
376.642	115.61
376.853	224.65
377.065	190.4
377.276	152.27
377.487	115.24
377.698	41.93
377.909	127.46
378.12	166.34
378.331	62.11
378.542	111.35
378.753	96.73
378.964	83.21
379.174	179.48
379.385	132.46
379.596	44.71
379.807	171.52
380.018	39.71
380.229	250.75
380.44	289.44
380.65	63.22
380.861	160.6
381.072	131.35
381.283	191.51
381.493	247.42
381.704	239.09
381.915	125.61
382.126	79.88
382.336	217.43
382.547	255.94
382.757	162.63
382.968	52.85
383.179	139.12
383.389	219.28
383.6	164.85
383.81	133.38
384.021	323.14
384.231	317.77
384.442	125.42
384.652	173.56
384.863	266.49
385.073	235.39
385.284	262.42
385.494	193.92
385.705	108.58
385.915	125.42
386.125	138.01
386.336	116.35
386.546	50.82
386.756	194.66
386.967	109.5
387.177	212.99
387.387	257.23
387.598	134.31
387.808	128.76
388.018	185.96
388.228	122.46
388.439	184.29
388.649	89.14
388.859	53.41
389.069	181.33
389.279	57.48
389.489	115.43
389.699	75.25
389.909	85.25
390.12	37.12
390.33	196.14
390.54	124.13
390.75	247.05
390.96	79.7
391.17	111.72
391.38	85.62
391.59	70.26
391.799	137.46
392.009	245.2
392.219	210.77
392.429	159.86
392.639	132.09
392.849	148.93
393.059	252.23
393.269	256.86
393.478	223.91
393.688	319.62
393.898	263.16
394.108	93.58
394.317	138.38
394.527	95.62
394.737	159.86
394.947	112.09
395.156	68.96
395.366	174.11
395.576	223.17
395.785	153.56
395.995	190.03
396.204	149.49
396.414	30.64
396.624	88.21
396.833	17.68
397.043	106.17
397.252	87.29
397.462	278.15
397.671	115.06
397.881	35.27
398.09	103.21
398.299	37.12
398.509	127.83
398.718	121.17
398.928	125.79
399.137	207.25
399.346	135.98
399.556	130.05
399.765	21.2
399.974	25.45
400.184	128.94
400.393	156.52
400.602	134.86
400.811	144.86
401.021	87.84
401.23	183.74
401.439	136.35
401.648	158.19
401.857	97.65
402.066	110.61
402.276	101.91
402.485	229.83
402.694	127.64
402.903	163.19
403.112	47.11
403.321	240.57
403.53	216.88
403.739	60.26
403.948	113.39
404.157	187.26
404.366	115.06
404.575	100.99
404.784	214.1
404.993	200.95
405.202	332.02
405.411	250.75
405.619	47.3
405.828	140.05
406.037	165.23
406.246	102.65
406.455	78.4
406.663	192.07
406.872	83.77
407.081	162.63
407.29	175.22
407.498	156.52
407.707	102.47
407.916	114.13
408.124	225.95
408.333	322.03
408.542	46.56
408.75	127.46
408.959	129.31
409.168	141.71
409.376	121.35
409.585	174.85
409.793	257.42
410.002	177.07
410.21	217.8
410.419	177.63
410.627	111.54
410.836	147.27
411.044	141.71
411.253	159.86
411.461	52.3
411.669	270.19
411.878	219.1
412.086	65.07
412.294	185.4
412.503	48.97
412.711	163.19
412.919	164.48
413.128	88.77
413.336	54.89
413.544	225.02
413.752	198.18
413.961	230.94
414.169	137.83
414.377	223.17
414.585	315.73
414.793	113.02
415.001	96.54
415.209	165.97
415.418	98.39
415.626	201.88
415.834	123.2
416.042	143.57
416.25	82.29
416.458	37.49
416.666	144.31
416.874	266.67
417.082	254.64
417.29	110.8
417.498	146.53
417.706	147.64
417.913	160.6
418.121	136.16
418.329	298.33
418.537	110.61
418.745	64.33
418.953	151.34
419.161	278.89
419.368	149.3
419.576	11.94
419.784	109.5
419.992	110.98
420.199	193.92
420.407	93.95
420.615	192.25
420.822	151.53
421.03	140.6
421.238	138.94
421.445	48.6
421.653	46.19
421.861	172.07
422.068	62.11
422.276	123.39
422.483	16.57
422.691	133.38
422.898	326.28
423.106	49.34
423.313	78.96
423.521	164.48
423.728	182.07
423.936	118.02
424.143	178.74
424.35	242.42
424.558	125.79
424.765	153.19
424.973	93.4
425.18	83.95
425.387	185.4
425.594	134.49
425.802	351.46
426.009	118.94
426.216	110.06
426.424	209.47
426.631	217.99
426.838	124.68
427.045	110.06
427.252	175.78
427.459	222.24
427.667	250.2
427.874	104.13
428.081	169.67
428.288	193.18
428.495	80.62
428.702	283.52
428.909	122.65
429.116	45.26
429.323	120.05
429.53	193.18
429.737	78.96
429.944	158.93
430.151	100.43
430.358	225.02
430.565	136.16
430.772	51.19
430.979	81.36
431.185	62.85
431.392	49.15
431.599	186.14
431.806	131.16
432.013	128.38
432.219	98.02
432.426	156.15
432.633	143.01
432.84	135.98
433.046	122.83
433.253	71.37
433.46	210.58
433.666	73.96
433.873	174.67
434.08	224.28
434.286	167.08
434.493	264.08
434.7	123.94
434.906	210.58
435.113	72.11
435.319	299.26
435.526	85.99
435.732	202.99
435.939	134.68
436.145	105.61
436.352	144.31
436.558	114.13
436.765	273.34
436.971	54.7
437.177	139.49
437.384	-3.42
437.59	77.48
437.796	151.71
438.003	105.43
438.209	319.62
438.415	95.25
438.622	222.24
438.828	219.1
439.034	219.84
439.24	102.28
439.447	183.18
439.653	121.35
439.859	82.1
440.065	130.24
440.271	73.96
440.477	153.56
440.683	147.82
440.89	49.89
441.096	242.05
441.302	202.62
441.508	251.12
441.714	63.59
441.92	37.3
442.126	55.45
442.332	201.51
442.538	110.8
442.744	148.93
442.95	181.33
443.156	152.45
443.361	220.95
443.567	87.66
443.773	174.11
443.979	293.7
444.185	110.43
444.391	98.02
444.596	105.61
444.802	92.66
445.008	381.82
445.214	73.96
445.42	274.45
445.625	88.21
445.831	220.76
446.037	266.86
446.242	281.48
446.448	310.18
446.654	414.59
446.859	463.46
447.065	518.63
447.27	623.78
447.476	446.8
447.682	285.37
447.887	414.59
448.093	408.11
448.298	268.71
448.504	284.63
448.709	218.73
448.915	393.86
449.12	285.56
449.325	368.12
449.531	310.18
449.736	362.01
449.942	204.84
450.147	251.49
450.352	274.63
450.558	217.25
450.763	189.66
450.968	385.34
451.174	130.42
451.379	153.56
451.584	140.42
451.789	140.79
451.995	200.4
452.2	61.18
452.405	25.64
452.61	120.61
452.815	233.35
453.02	105.61
453.226	89.51
453.431	207.06
453.636	121.72
453.841	182.07
454.046	173
454.251	180.59
454.456	164.85
454.661	226.87
454.866	237.79
455.071	303.14
455.276	278.52
455.481	274.82
455.686	195.4
455.891	172.07
456.095	177.26
456.3	183
456.505	105.43
456.71	264.45
456.915	205.58
457.12	208.36
457.324	111.54
457.529	150.79
457.734	196.33
457.939	134.49
458.144	137.64
458.348	129.31
458.553	342.58
458.758	556.58
458.962	908.51
459.167	1222.48
459.372	1392.43
459.576	1550.52
459.781	1178.05
459.985	883.51
460.19	808.35
460.394	624.15
460.599	602.31
460.803	459.02
461.008	444.4
461.212	283.15
461.417	284.08
461.621	163.37
461.826	195.96
462.03	71.18
462.235	180.22
462.439	207.06
462.643	399.04
462.848	254.09
463.052	115.98
463.256	482.35
463.461	1134.36
463.665	1782.3
463.869	2370.63
464.074	2547.06
464.278	2594.45
464.482	2271.03
464.686	1565.7
464.89	1411.12
465.095	1366.88
465.299	939.24
465.503	842.6
465.707	656.92
465.911	582.31
466.115	653.96
466.319	587.87
466.523	789.47
466.727	593.42
466.931	635.07
467.135	407.93
467.339	424.96
467.543	337.39
467.747	338.5
467.951	227.61
468.155	192.07
468.359	325.91
468.563	178.37
468.767	208.73
468.971	128.2
469.175	132.46
469.379	149.3
469.582	348.5
469.786	458.83
469.99	605.27
470.194	783.73
470.397	950.16
470.601	838.16
470.805	841.12
471.009	602.68
471.212	527.52
471.416	470.13
471.62	452.36
471.823	360.35
472.027	406.63
472.23	96.54
472.434	361.09
472.638	207.99
472.841	181.89
473.045	160.04
473.248	154.86
473.452	203.73
473.655	215.95
473.859	178.37
474.062	163
474.266	206.88
474.469	109.5
474.672	172.82
474.876	170.41
475.079	132.27
475.283	207.06
475.486	198.36
475.689	194.47
475.893	243.35
476.096	344.43
476.299	206.88
476.502	200.21
476.706	229.28
476.909	379.6
477.112	709.68
477.315	839.64
477.519	1039.02
477.722	1049.94
477.925	906.84
478.128	792.8
478.331	604.16
478.534	506.6
478.737	556.03
478.94	428.1
479.143	332.02
479.346	607.12
479.549	755.96
479.752	743.37
479.955	769.29
480.158	854.26
480.361	678.76
480.564	671.54
480.767	725.6
480.97	807.43
481.173	821.68
481.376	949.97
481.579	767.63
481.782	606.75
481.984	572.13
482.187	486.23
482.39	444.58
482.593	413.66
482.796	411.07
482.998	252.6
483.201	314.25
483.404	218.36
483.606	24.71
483.809	287.78
484.012	167.26
484.214	196.7
484.417	194.47
484.62	173.56
484.822	91.73
485.025	257.05
485.227	350.54
485.43	190.59
485.632	175.78
485.835	315.55
486.037	245.38
486.24	145.05
486.442	490.86
486.645	203.36
486.847	188.55
487.05	221.13
487.252	214.1
487.455	212.8
487.657	233.17
487.859	367.94
488.062	520.85
488.264	710.42
488.466	834.64
488.668	1189.9
488.871	1235.62
489.073	1297.83
489.275	1278.39
489.477	1186.75
489.68	1028.28
489.882	819.46
490.084	700.42
490.286	685.61
490.488	523.63
490.69	396.63
490.893	503.45
491.095	205.03
491.297	330.54
491.499	342.76
491.701	308.51
491.903	210.58
492.105	198.36
492.307	217.62
492.509	397
492.711	131.16
492.913	269.45
493.115	280
493.317	175.78
493.518	198.55
493.72	188.18
493.922	230.39
494.124	211.14
494.326	288.7
494.528	149.49
494.73	250.94
494.931	318.88
495.133	99.51
495.335	228.91
495.537	186.51
495.738	344.24
495.94	251.49
496.142	114.32
496.343	182.26
496.545	168.19
496.747	230.2
496.948	152.82
497.15	212.43
497.351	124.13
497.553	121.54
497.755	236.5
497.956	338.69
498.158	189.66
498.359	217.99
498.561	198.92
498.762	117.65
498.964	210.21
499.165	319.81
499.366	293.52
499.568	246.68
499.769	359.79
499.971	319.81
500.172	344.06
500.373	268.16
500.575	234.83
500.776	263.16
500.977	247.05
501.178	251.49
501.38	294.26
501.581	350.91
501.782	200.21
501.983	286.48
502.185	174.85
502.386	146.53
502.587	118.57
502.788	215.95
502.989	163.19
503.19	227.24
503.391	189.66
503.593	178.37
503.794	166.34
503.995	186.88
504.196	341.47
504.397	171.89
504.598	162.63
504.799	87.29
505	273.89
505.201	279.08
505.402	185.96
505.602	110.8
505.803	131.16
506.004	126.16
506.205	240.94
506.406	252.6
506.607	175.41
506.808	307.03
507.008	188
507.209	247.42
507.41	329.62
507.611	109.5
507.812	166.71
508.012	125.61
508.213	164.67
508.414	105.8
508.614	156.89
508.815	106.35
509.016	326.47
509.216	260.19
509.417	236.13
509.617	180.96
509.818	189.48
510.019	268.34
510.219	164.3
510.42	113.57
510.62	194.29
510.821	209.29
511.021	237.05
511.222	221.32
511.422	302.4
511.623	169.85
511.823	250.01
512.023	104.13
512.224	282.59
512.424	81.55
512.624	200.77
512.825	96.91
513.025	289.44
513.225	139.49
513.426	180.78
513.626	121.91
513.826	272.41
514.026	278.52
514.227	263.71
514.427	189.29
514.627	121.17
514.827	174.11
515.027	310.73
515.228	212.8
515.428	298.33
515.628	212.62
515.828	231.69
516.028	159.86
516.228	324.99
516.428	266.86
516.628	242.42
516.828	111.54
517.028	282.59
517.228	139.86
517.428	152.82
517.628	252.05
517.828	292.04
518.028	316.84
518.228	191.51
518.428	167.82
518.627	225.58
518.827	148.38
519.027	264.08
519.227	307.03
519.427	301.48
519.626	185.77
519.826	287.59
520.026	171.89
520.226	262.97
520.425	272.23
520.625	156.15
520.825	94.51
521.024	252.97
521.224	183.18
521.424	255.01
521.623	153.38
521.823	207.62
522.023	248.35
522.222	216.69
522.422	202.62
522.621	324.62
522.821	230.2
523.02	279.82
523.22	251.31
523.419	317.77
523.619	257.79
523.818	165.04
524.017	188.37
524.217	218.73
524.416	326.65
524.616	452.73
524.815	123.57
525.014	235.76
525.214	170.78
525.413	217.43
525.612	374.79
525.812	285.74
526.011	308.88
526.21	388.86
526.409	298.89
526.608	450.32
526.808	223.91
527.007	377.01
527.206	365.35
527.405	200.58
527.604	244.09
527.803	286.48
528.003	206.14
528.202	300.37
528.401	472.35
528.6	199.47
528.799	194.29
528.998	177.07
529.197	198.92
529.396	197.25
529.595	263.53
529.794	271.3
529.993	218.73
530.192	329.8
530.39	235.57
530.589	281.11
530.788	301.66
530.987	205.95
531.186	248.35
531.385	199.29
531.583	269.82
531.782	300
531.981	156.71
532.18	234.09
532.379	137.09
532.577	159.67
532.776	177.07
532.975	238.91
533.173	203.92
533.372	201.69
533.571	228.72
533.769	246.31
533.968	397.93
534.166	226.13
534.365	83.77
534.564	245.94
534.762	228.35
534.961	112.46
535.159	397
535.358	184.48
535.556	165.04
535.755	236.5
535.953	204.66
536.151	378.31
536.35	133.75
536.548	262.42
536.747	188.18
536.945	203.73
537.143	221.5
537.342	173.37
537.54	143.2
537.738	235.39
537.937	199.84
538.135	233.91
538.333	145.97
538.531	277.04
538.73	185.59
538.928	302.77
539.126	185.59
539.324	373.12
539.522	263.34
539.72	192.81
539.919	217.43
540.117	77.29
540.315	252.79
540.513	312.59
540.711	225.76
540.909	208.17
541.107	207.99
541.305	192.62
541.503	316.84
541.701	192.62
541.899	170.22
542.097	358.31
542.295	148.38
542.493	154.12
542.691	88.77
542.888	196.88
543.086	70.63
543.284	71.37
543.482	287.04
543.68	284.26
543.878	275.75
544.075	165.78
544.273	138.01
544.471	185.77
544.669	281.85
544.866	270.38
545.064	212.99
545.262	273.52
545.459	257.23
545.657	338.69
545.855	200.21
546.052	107.28
546.25	270.93
546.447	364.05
546.645	159.12
546.842	224.28
547.04	182.26
547.238	95.99
547.435	188.74
547.633	158.56
547.83	264.27
548.027	147.08
548.225	188.18
548.422	220.95
548.62	104.13
548.817	168.56
549.014	145.42
549.212	229.09
549.409	253.53
549.606	190.22
549.804	221.32
550.001	230.57
550.198	177.81
550.396	131.16
550.593	57.11
550.79	150.23
550.987	69.33
551.184	218.17
551.382	290.74
551.579	126.9
551.776	42.3
551.973	189.29
552.17	151.34
552.367	292.41
552.564	140.42
552.761	174.48
552.958	187.44
553.155	250.38
553.353	274.08
553.55	187.63
553.746	198.73
553.943	262.23
554.14	341.47
554.337	292.22
554.534	273.52
554.731	272.41
554.928	290.93
555.125	462.35
555.322	188.92
555.519	161.52
555.715	205.4
555.912	128.38
556.109	178.18
556.306	127.83
556.503	229.65
556.699	176.52
556.896	250.75
557.093	260.56
557.289	222.43
557.486	109.69
557.683	343.69
557.879	150.97
558.076	114.32
558.273	166.34
558.469	193.55
558.666	178.74
558.862	264.27
559.059	186.14
559.255	265.38
559.452	134.49
559.648	170.59
559.845	131.35
560.041	153.38
560.238	283.15
560.434	120.79
560.631	90.25
560.827	156.89
561.023	130.98
561.22	69.33
561.416	152.08
561.612	173.74
561.809	104.5
562.005	126.9
562.201	160.41
562.398	205.03
562.594	127.09
562.79	64.89
562.986	275.19
563.182	177.63
563.379	113.02
563.575	140.05
563.771	174.67
563.967	257.05
564.163	99.69
564.359	170.78
564.555	324.8
564.751	153.93
564.947	120.98
565.144	133.38
565.34	245.38
565.536	220.95
565.732	191.51
565.928	171.7
566.123	241.5
566.319	237.05
566.515	371.09
566.711	169.48
566.907	275
567.103	138.94
567.299	68.03
567.495	220.21
567.691	128.94
567.886	347.02
568.082	210.4
568.278	293.33
568.474	333.69
568.669	300.55
568.865	255.2
569.061	215.76
569.257	254.27
569.452	249.64
569.648	162.26
569.844	135.6
570.039	164.11
570.235	190.4
570.43	131.35
570.626	215.58
570.822	373.49
571.017	330.91
571.213	153.93
571.408	131.53
571.604	192.25
571.799	101.91
571.995	134.86
572.19	112.09
572.385	85.81
572.581	130.42
572.776	220.76
572.972	229.09
573.167	116.72
573.362	171.7
573.558	215.58
573.753	190.4
573.948	241.31
574.144	161.71
574.339	156.71
574.534	94.51
574.729	86.18
574.925	183.37
575.12	218.36
575.315	36.75
575.51	157.63
575.705	104.32
575.9	121.35
576.096	154.67
576.291	129.68
576.486	155.78
576.681	145.05
576.876	198.92
577.071	181.7
577.266	108.95
577.461	187.81
577.656	199.47
577.851	163.19
578.046	216.32
578.241	200.03
578.436	143.2
578.631	247.05
578.826	440.51
579.021	247.42
579.215	308.14
579.41	538.99
579.605	355.72
579.8	349.8
579.995	345.91
580.189	284.63
580.384	231.13
580.579	358.68
580.774	217.43
580.968	226.69
581.163	191.14
581.358	314.81
581.552	170.22
581.747	170.04
581.942	220.02
582.136	184.66
582.331	104.5
582.526	240.2
582.72	172.26
582.915	186.33
583.109	220.21
583.304	133.2
583.498	316.66
583.693	205.21
583.887	281.67
584.082	136.16
584.276	464.57
584.471	141.53
584.665	230.94
584.859	105.8
585.054	132.09
585.248	257.79
585.442	205.4
585.637	272.23
585.831	215.76
586.025	358.87
586.22	338.13
586.414	252.97
586.608	254.83
586.802	180.22
586.997	212.06
587.191	152.27
587.385	233.72
587.579	188.37
587.773	283.34
587.967	166.52
588.162	233.35
588.356	128.38
588.55	183.92
588.744	154.67
588.938	194.1
589.132	154.12
589.326	202.07
589.52	180.22
589.714	160.78
589.908	249.09
590.102	386.08
590.296	269.45
590.49	313.33
590.684	288.7
590.877	295.92
591.071	210.58
591.265	180.59
591.459	244.09
591.653	116.17
591.847	181.89
592.04	113.76
592.234	166.89
592.428	52.85
592.622	134.31
592.815	129.68
593.009	85.81
593.203	278.34
593.397	156.89
593.59	185.59
593.784	152.82
593.977	99.69
594.171	136.72
594.365	220.39
594.558	260.19
594.752	203.92
594.945	166.34
595.139	174.3
595.332	119.87
595.526	142.64
595.719	121.54
595.913	211.51
596.106	126.9
596.3	132.64
596.493	211.14
596.687	162.82
596.88	238.35
597.073	229.09
597.267	107.1
597.46	151.16
597.653	185.77
597.847	137.64
598.04	194.47
598.233	294.63
598.426	41.19
598.62	133.2
598.813	91.36
599.006	207.25
599.199	153.01
599.392	146.34
599.586	210.77
599.779	70.81
599.972	46.19
600.165	172.07
600.358	89.14
600.551	263.34
600.744	121.91
600.937	162.63
601.13	169.85
601.323	137.27
601.516	172.07
601.709	191.7
601.902	170.41
602.095	219.47
602.288	185.22
602.481	136.35
602.674	135.42
602.867	246.5
603.06	225.95
603.252	51.74
603.445	269.45
603.638	161.34
603.831	193.18
604.024	47.48
604.216	175.78
604.409	87.29
604.602	-24.9
604.795	206.51
604.987	133.94
605.18	208.36
605.373	231.69
605.565	132.83
605.758	166.89
605.951	93.03
606.143	162.82
606.336	267.04
606.528	213.54
606.721	105.98
606.913	155.97
607.106	276.86
607.298	216.69
607.491	215.95
607.683	177.44
607.876	155.41
608.068	140.05
608.261	198.73
608.453	272.6
608.646	197.81
608.838	176.15
609.03	235.57
609.223	134.49
609.415	77.85
609.607	129.31
609.8	152.27
609.992	108.58
610.184	231.32
610.376	181.89
610.569	220.58
610.761	93.95
610.953	75.44
611.145	243.72
611.337	176.33
611.529	273.71
611.722	232.98
611.914	116.91
612.106	149.49
612.298	138.2
612.49	250.57
612.682	436.8
612.874	382.56
613.066	146.34
613.258	275.56
613.45	231.87
613.642	257.97
613.834	242.24
614.026	230.02
614.218	308.51
614.41	329.06
614.602	411.07
614.793	585.65
614.985	539.18
615.177	436.43
615.369	479.38
615.561	330.17
615.753	405.33
615.944	454.39
616.136	364.61
616.328	243.9
616.52	268.53
616.711	223.72
616.903	341.47
617.095	367.75
617.286	197.62
617.478	243.53
617.67	131.9
617.861	245.38
618.053	239.28
618.244	117.46
618.436	95.8
618.627	56.19
618.819	134.12
619.01	234.65
619.202	96.17
619.393	182.07
619.585	107.1
619.776	170.96
619.968	119.31
620.159	120.24
620.351	107.1
620.542	51.56
620.733	135.23
620.925	26.57
621.116	129.5
621.307	61.92
621.499	166.15
621.69	172.07
621.881	75.25
622.072	176.33
622.264	53.59
622.455	164.48
622.646	265.93
622.837	108.39
623.028	236.31
623.22	151.16
623.411	301.11
623.602	141.71
623.793	162.45
623.984	123.39
624.175	228.35
624.366	225.39
624.557	167.63
624.748	84.88
624.939	175.78
625.13	277.6
625.321	134.68
625.512	138.57
625.703	210.77
625.894	206.32
626.085	115.61
626.276	119.87
626.467	167.82
626.658	200.4
626.848	188.18
627.039	91.17
627.23	79.7
627.421	139.68
627.612	165.78
627.802	239.46
627.993	275.75
628.184	478.09
628.375	454.39
628.565	451.8
628.756	291.67
628.947	362.01
629.137	472.16
629.328	287.41
629.519	182.81
629.709	326.84
629.9	139.12
630.09	216.5
630.281	212.62
630.471	178.74
630.662	133.38
630.852	92.29
631.043	183.55
631.233	233.35
631.424	182.26
631.614	96.36
631.805	269.08
631.995	216.5
632.185	110.98
632.376	141.71
632.566	149.86
632.756	99.51
632.947	97.65
633.137	-16.01
633.327	265.56
633.518	119.5
633.708	235.57
633.898	220.95
634.088	169.85
634.279	55.26
634.469	83.21
634.659	155.23
634.849	148.38
635.039	74.14
635.229	190.03
635.42	53.04
635.61	136.35
635.8	11.76
635.99	150.97
636.18	97.65
636.37	98.76
636.56	206.32
636.75	185.59
636.94	133.75
637.13	68.22
637.32	218.17
637.51	34.71
637.7	145.97
637.89	146.53
638.079	219.1
638.269	71.18
638.459	78.96
638.649	121.91
638.839	323.51
639.029	210.21
639.218	176.52
639.408	103.76
639.598	168.74
639.788	222.61
639.977	99.14
640.167	128.76
640.357	99.88
640.546	26.01
640.736	126.9
640.926	226.5
641.115	205.03
641.305	114.13
641.495	158.19
641.684	166.89
641.874	178.18
642.063	120.98
642.253	178.18
642.442	212.99
642.632	195.77
642.821	81.36
643.011	109.87
643.2	201.32
643.39	240.94
643.579	330.17
643.768	336.65
643.958	383.49
644.147	338.32
644.336	249.64
644.526	383.12
644.715	238.35
644.904	315.92
645.094	368.86
645.283	152.08
645.472	344.61
645.661	257.23
645.851	160.78
646.04	259.64
646.229	138.01
646.418	254.27
646.607	260.38
646.796	258.16
646.986	344.61
647.175	376.08
647.364	409.22
647.553	391.45
647.742	250.01
647.931	214.65
648.12	127.09
648.309	148.56
648.498	200.4
648.687	346.65
648.876	76.36
649.065	124.13
649.254	143.57
649.443	40.82
649.632	325.36
649.82	183.92
650.009	153.19
650.198	1.39
650.387	144.49
650.576	142.45
650.765	222.24
650.953	168
651.142	124.87
651.331	156.15
651.52	156.34
651.708	247.24
651.897	266.86
652.086	115.43
652.274	78.22
652.463	203.36
652.652	229.46
652.84	153.38
653.029	221.5
653.217	223.72
653.406	236.87
653.594	164.85
653.783	222.43
653.972	154.86
654.16	174.67
654.349	110.8
654.537	186.51
654.725	286.3
654.914	126.9
655.102	64.33
655.291	118.39
655.479	88.03
655.667	154.67
655.856	129.87
656.044	164.85
656.232	292.78
656.421	320.92
656.609	162.08
656.797	330.36
656.986	198.55
657.174	240.02
657.362	92.1
657.55	203.92
657.738	195.22
657.927	215.76
658.115	176.89
658.303	104.32
658.491	207.99
658.679	120.98
658.867	151.34
659.055	53.22
659.243	178.55
659.431	116.91
659.619	79.33
659.807	208.17
659.995	230.76
660.183	179.85
660.371	20.46
660.559	300.74
660.747	118.76
660.935	116.54
661.123	-0.83
661.311	100.62
661.499	31.01
661.687	62.11
661.875	169.67
662.062	174.48
662.25	141.16
662.438	158.75
662.626	140.05
662.813	163
663.001	167.82
663.189	162.63
663.377	230.57
663.564	297.41
663.752	423.85
663.94	311.47
664.127	265.75
664.315	377.93
664.502	221.13
664.69	372.57
664.878	284.82
665.065	232.06
665.253	214.28
665.44	246.68
665.628	159.3
665.815	194.85
666.003	220.58
666.19	146.53
666.378	105.8
666.565	132.46
666.752	277.78
666.94	225.58
667.127	161.71
667.315	177.81
667.502	117.65
667.689	-55.82
667.877	-5.65
668.064	302.4
668.251	51.74
668.438	96.73
668.626	83.4
668.813	183.18
669	190.96
669.187	172.44
669.374	282.04
669.562	258.9
669.749	517.52
669.936	401.63
670.123	244.64
670.31	370.9
670.497	239.46
670.684	261.86
670.871	109.5
671.058	216.13
671.245	206.69
671.432	208.54
671.619	118.76
671.806	206.51
671.993	299.81
672.18	149.67
672.367	40.26
672.554	31.01
672.741	90.25
672.928	130.05
673.115	117.28
673.302	123.2
673.488	140.79
673.675	122.46
673.862	55.26
674.049	174.11
674.235	176.52
674.422	122.28
674.609	157.08
674.796	135.79
674.982	136.72
675.169	88.95
675.356	191.51
675.542	216.5
675.729	189.66
675.916	148.75
676.102	231.69
676.289	215.02
676.475	46
676.662	106.73
676.848	116.17
677.035	109.5
677.221	93.4
677.408	136.35
677.594	169.3
677.781	195.96
677.967	138.01
678.154	50.08
678.34	113.02
678.526	36.38
678.713	179.29
678.899	192.62
679.085	297.41
679.272	247.79
679.458	376.45
679.644	416.81
679.831	220.39
680.017	461.24
680.203	329.25
680.389	368.31
680.576	363.12
680.762	168.37
680.948	291.85
681.134	229.83
681.32	205.58
681.506	313.14
681.692	305.37
681.879	264.82
682.065	273.89
682.251	349.24
682.437	184.85
682.623	201.32
682.809	87.1
682.995	60.44
683.181	335.91
683.367	416.63
683.553	149.86
683.739	349.43
683.924	390.34
684.11	391.45
684.296	554.17
684.482	742.26
684.668	612.86
684.854	624.52
685.04	741.15
685.225	707.64
685.411	691.54
685.597	484.2
685.783	492.9
685.968	335.17
686.154	334.8
686.34	201.69
686.526	171.89
686.711	111.91
686.897	353.31
687.083	43.04
687.268	195.77
687.454	98.58
687.639	183.18
687.825	99.88
688.01	232.24
688.196	158.01
688.382	242.24
688.567	259.45
688.752	253.72
688.938	55.26
689.123	355.9
689.309	224.84
689.494	24.16
689.68	286.3
689.865	322.58
690.05	207.62
690.236	163.19
690.421	99.14
690.606	4.54
690.792	139.31
690.977	57.3
691.162	115.24
691.348	112.83
691.533	9.35
691.718	-54.52
691.903	77.11
692.089	58.96
692.274	3.42
692.459	-23.42
692.644	134.68
692.829	218.73
693.014	68.22
693.199	112.09
693.384	31.56
693.569	154.12
693.755	196.33
693.94	159.67
694.125	253.9
694.31	130.98
694.495	200.58
694.68	101.73
694.864	245.01
695.049	105.24
695.234	120.05
695.419	311.66
695.604	149.49
695.789	155.04
695.974	212.8
696.159	57.48
696.344	138.75
696.528	108.76
696.713	49.15
696.898	150.6
697.083	105.06
697.267	15.27
697.452	46.93
697.637	66.37
697.822	22.86
698.006	117.46
698.191	157.26
698.375	164.3
698.56	183.18
698.745	143.01
698.929	101.17
699.114	125.05
699.298	152.08
699.483	231.5
699.668	23.97
699.852	-46.74
700.037	55.63
700.221	-59.33
700.405	243.72
700.59	214.47
700.774	91.73
700.959	56
701.143	90.8
701.328	164.3
701.512	18.98
701.696	33.23
701.881	125.42
702.065	48.04
702.249	41.01
702.433	211.51
702.618	93.21
702.802	102.1
702.986	136.53
703.17	538.07
703.355	42.49
703.539	-11.02
703.723	145.97
703.907	77.85
704.091	228.91
704.275	65.63
704.46	26.57
704.644	144.12
704.828	27.86
705.012	-10.64
705.196	97.47
705.38	-31.38
705.564	296.29
705.748	62.11
705.932	183.74
706.116	38.41
706.3	52.3
706.484	41.75
706.668	147.82
706.851	106.73
707.035	185.4
707.219	168
707.403	114.5
707.587	44.71
707.771	214.84
707.954	162.45
708.138	488.08
708.322	606.57
708.506	693.39
708.689	906.47
708.873	808.72
709.057	889.99
709.241	934.61
709.424	623.23
709.608	601.75
709.792	356.83
709.975	324.8
710.159	234.65
710.342	243.9
710.526	292.41
710.709	239.46
710.893	145.97
711.077	175.22
711.26	221.32
711.443	85.25
711.627	217.8
711.81	217.99
711.994	57.67
712.177	65.81
712.361	144.12
712.544	22.68
712.727	110.43
712.911	154.86
713.094	88.95
713.277	114.87
713.461	160.04
713.644	61.74
713.827	221.32
714.011	1.57
714.194	80.99
714.377	128.2
714.56	173.56
714.743	152.64
714.927	126.16
715.11	120.24
715.293	45.26
715.476	130.42
715.659	143.38
715.842	112.65
716.025	-8.61
716.208	87.29
716.391	212.8
716.575	123.2
716.758	171.7
716.941	42.3
717.124	114.13
717.306	124.13
717.489	-5.83
717.672	55.45
717.855	129.13
718.038	-1.02
718.221	165.23
718.404	-16.75
718.587	3.61
718.77	13.61
718.952	75.07
719.135	124.87
719.318	80.44
719.501	63.22
719.684	131.35
719.866	144.49
720.049	119.13
720.232	125.05
720.414	197.25
720.597	214.1
720.78	118.57
720.962	109.87
721.145	155.78
721.328	105.06
721.51	78.22
721.693	77.29
721.875	109.5
722.058	40.08
722.24	182.44
722.423	330.36
722.605	162.08
722.788	192.44
722.97	258.9
723.153	165.78
723.335	85.07
723.518	161.15
723.7	277.6
723.882	174.11
724.065	148.56
724.247	94.88
724.429	173.19
724.612	230.94
724.794	153.19
724.976	346.65
725.159	346.09
725.341	411.26
725.523	340.91
725.705	311.1
725.888	464.02
726.07	206.32
726.252	70.07
726.434	142.08
726.616	163.19
726.798	-23.97
726.98	109.32
727.162	66
727.345	220.76
727.527	106.35
727.709	81.92
727.891	241.31
728.073	245.2
728.255	218.73
728.437	431.62
728.619	305.37
728.801	381.27
728.982	298.33
729.164	287.78
729.346	300.37
729.528	307.59
729.71	140.6
729.892	175.41
730.074	258.71
730.255	293.7
730.437	201.69
730.619	196.14
730.801	454.02
730.983	161.34
731.164	277.23
731.346	264.08
731.528	103.76
731.709	193.36
731.891	48.04
732.073	83.4
732.254	210.21
732.436	112.28
732.617	80.62
732.799	176.7
732.981	122.65
733.162	133.94
733.344	-1.94
733.525	80.81
733.707	152.45
733.888	86.92
734.07	64.52
734.251	38.78
734.433	84.14
734.614	131.9
734.795	208.91
734.977	259.27
735.158	162.63
735.34	358.87
735.521	334.62
735.702	303.14
735.883	396.82
736.065	374.42
736.246	455.32
736.427	448.65
736.609	461.98
736.79	281.3
736.971	207.8
737.152	221.5
737.333	231.69
737.514	173.74
737.696	297.41
737.877	98.58
738.058	97.1
738.239	78.96
738.42	137.27
738.601	88.58
738.782	114.69
738.963	220.76
739.144	87.47
739.325	187.44
739.506	150.97
739.687	62.48
739.868	235.76
740.049	121.72
740.23	122.65
740.411	165.23
740.592	151.71
740.773	21.57
740.953	145.05
741.134	105.8
741.315	77.11
741.496	180.78
741.677	82.29
741.857	134.68
742.038	12.68
742.219	28.23
742.4	96.54
742.58	18.23
742.761	91.73
742.942	89.14
743.122	75.99
743.303	85.44
743.484	62.85
743.664	129.5
743.845	213.54
744.025	246.68
744.206	204.66
744.386	202.81
744.567	65.63
744.748	163.37
744.928	329.06
745.108	178.55
745.289	95.99
745.469	118.76
745.65	260.94
745.83	80.25
746.011	106.35
746.191	202.62
746.371	40.08
746.552	157.82
746.732	129.13
746.912	214.84
747.093	168.93
747.273	120.05
747.453	55.63
747.633	229.46
747.814	-1.02
747.994	130.24
748.174	152.27
748.354	61.92
748.534	61.92
748.715	68.4
748.895	184.11
749.075	5.65
749.255	231.13
749.435	53.78
749.615	170.59
749.795	95.06
749.975	111.35
750.155	88.77
750.335	101.73
750.515	120.79
750.695	133.94
750.875	81.18
751.055	99.32
751.235	41.75
751.415	147.45
751.595	29.16
751.775	189.29
751.954	71.37
752.134	176.15
752.314	200.03
752.494	208.73
752.674	81.73
752.854	198.92
753.033	68.22
753.213	38.41
753.393	48.23
753.572	137.64
753.752	32.49
753.932	120.98
754.111	70.81
754.291	147.82
754.471	220.95
754.65	332.95
754.83	449.02
755.01	536.59
755.189	574.72
755.369	545.84
755.548	551.95
755.728	421.25
755.907	373.49
756.087	252.23
756.266	383.3
756.446	104.87
756.625	170.78
756.804	495.12
756.984	123.2
757.163	104.5
757.343	147.45
757.522	42.49
757.701	101.54
757.881	221.32
758.06	32.86
758.239	42.12
758.418	192.62
758.598	206.69
758.777	108.02
758.956	94.69
759.135	87.1
759.315	73.96
759.494	273.15
759.673	141.71
759.852	38.04
760.031	154.67
760.21	456.06
760.389	854.08
760.568	1248.21
760.748	1558.48
760.927	1683.81
761.106	1727.69
761.285	1456.29
761.464	1035.69
761.643	953.86
761.822	764.48
762	640.63
762.179	403.11
762.358	434.95
762.537	383.49
762.716	341.09
762.895	329.43
763.074	325.91
763.253	362.2
763.431	191.88
763.61	285.37
763.789	227.43
763.968	148.93
764.147	174.11
764.325	125.61
764.504	84.7
764.683	52.85
764.861	124.87
765.04	80.44
765.219	42.67
765.397	46.56
765.576	181.52
765.755	165.78
765.933	24.9
766.112	137.27
766.29	83.4
766.469	19.16
766.647	75.44
766.826	51.93
767.004	82.84
767.183	91.17
767.361	138.38
767.54	232.06
767.718	221.5
767.897	29.34
768.075	26.94
768.253	-1.39
768.432	135.05
768.61	30.27
768.788	32.3
768.967	123.94
769.145	16.57
769.323	129.5
769.501	8.98
769.68	-4.17
769.858	102.1
770.036	8.05
770.214	173.56
770.393	52.85
770.571	106.73
770.749	18.61
770.927	-33.23
771.105	189.85
771.283	31.75
771.461	44.89
771.639	129.31
771.817	13.24
771.995	32.67
772.173	141.53
772.351	68.4
772.529	143.75
772.707	203.36
772.885	34.9
773.063	238.91
773.241	210.95
773.419	33.97
773.597	132.64
773.775	45.63
773.953	62.48
774.131	68.22
774.308	183.74
774.486	168
774.664	128.01
774.842	93.21
775.02	227.24
775.197	222.06
775.375	143.75
775.553	34.34
775.73	32.3
775.908	155.23
776.086	131.53
776.263	120.42
776.441	197.44
776.619	27.49
776.796	128.01
776.974	178.18
777.151	96.17
777.329	108.76
777.506	250.75
777.684	48.78
777.861	146.34
778.039	132.27
778.216	200.77
778.394	180.78
778.571	146.9
778.749	1.76
778.926	63.41
779.103	68.22
779.281	93.21
779.458	203.73
779.635	165.41
779.813	113.02
779.99	61.37
780.167	14.53
780.345	215.58
780.522	225.21
780.699	44.71
780.876	8.61
781.054	100.25
781.231	27.12
781.408	95.62
781.585	92.66
781.762	26.2
781.939	47.86
782.116	102.47
782.294	131.9
782.471	-51.93
782.648	29.53
782.825	6.02
783.002	76.18
783.179	76.73
783.356	-8.42
783.533	48.78
783.71	45.45
783.887	114.69
784.064	130.61
784.24	50.45
784.417	88.03
784.594	127.64
784.771	195.96
784.948	406.81
785.125	239.83
785.302	322.58
785.478	637.48
785.655	295.37
785.832	170.78
786.009	240.2
786.185	219.84
786.362	276.12
786.539	77.11
786.715	427.73
786.892	166.71
787.069	336.84
787.245	175.96
787.422	120.79
787.599	177.26
787.775	136.16
787.952	58.22
788.128	225.02
788.305	111.17
788.481	82.29
788.658	27.49
788.834	120.42
789.011	15.64
789.187	147.08
789.364	4.91
789.54	198.92
789.717	167.08
789.893	-31.38
790.069	122.28
790.246	24.71
790.422	106.54
790.598	66.92
790.775	79.51
790.951	164.67
791.127	79.7
791.304	23.79
791.48	-0.65
791.656	96.91
791.832	86.73
792.008	53.78
792.185	51.37
792.361	106.73
792.537	127.64
792.713	207.8
792.889	273.34
793.065	342.95
793.241	329.99
793.417	350.35
793.593	205.58
793.769	298.15
793.945	161.89
794.121	202.07
794.297	208.73
794.473	164.67
794.649	239.28
794.825	120.79
795.001	133.57
795.177	6.57
795.353	158.38
795.529	148.01
795.705	128.2
795.881	90.43
796.056	129.31
796.232	79.33
796.408	172.07
796.584	70.63
796.76	113.76
796.935	58.41
797.111	48.97
797.287	-1.76
797.462	167.08
797.638	153.01
797.814	43.41
797.989	58.41
798.165	162.82
798.341	270.93
798.516	63.22
798.692	136.9
798.867	165.97
799.043	105.06
799.218	197.25
799.394	93.4
799.569	343.13
799.745	167.26
799.92	106.91
800.096	140.05
800.271	140.23
800.447	344.24
800.622	138.2
800.797	-11.76
800.973	-25.64
801.148	127.46
801.323	126.53
801.499	35.64
801.674	48.23
801.849	217.25
802.025	212.8
802.2	337.21
802.375	295.92
802.55	325.91
802.725	170.96
802.901	188.18
803.076	221.13
803.251	158.93
803.426	153.01
803.601	217.43
803.776	55.08
803.951	87.29
804.127	117.09
804.302	93.4
804.477	140.42
804.652	207.25
804.827	47.11
805.002	29.34
805.177	130.61
805.352	276.86
805.526	108.58
805.701	245.94
805.876	164.3
806.051	56.56
806.226	138.38
806.401	176.15
806.576	129.68
806.751	98.21
806.925	84.14
807.1	103.95
807.275	31.19
807.45	54.15
807.625	414.59
807.799	169.48
807.974	71.18
808.149	-11.2
808.323	87.29
808.498	106.17
808.673	94.14
808.847	-18.79
809.022	101.91
809.197	153.93
809.371	33.05
809.546	173.93
809.72	70.81
809.895	120.24
810.069	-78.22
810.244	225.58
810.418	-7.13
810.593	222.43
810.767	141.34
810.942	162.45
811.116	254.83
811.29	105.24
811.465	48.23
811.639	126.9
811.814	215.95
811.988	245.57
812.162	137.46
812.337	27.68
812.511	148.01
812.685	81.36
812.859	85.81
813.034	112.83
813.208	148.93
813.382	15.09
813.556	168.74
813.73	165.41
813.905	42.67
814.079	79.33
814.253	125.24
814.427	237.42
814.601	8.05
814.775	113.02
814.949	36.93
815.123	145.42
815.297	12.87
815.471	47.3
815.645	52.3
815.819	124.5
815.993	82.84
816.167	84.7
816.341	139.49
816.515	179.11
816.689	78.22
816.863	259.27
817.037	279.45
817.21	411.44
817.384	354.05
817.558	452.36
817.732	526.41
817.906	387.93
818.079	265.38
818.253	470.31
818.427	446.8
818.601	798.73
818.774	1566.07
818.948	2952.48
819.122	5989.11
819.295	10473.79
819.469	15871.88
819.643	20313.42
819.816	23666.98
819.99	25329.97
820.163	25424.01
820.337	23207.13
820.511	20420.42
820.684	18010.45
820.858	16468.17
821.031	14779.82
821.205	13534.66
821.378	12470.18
821.551	11469.95
821.725	10430.28
821.898	9525.57
822.072	8648.26
822.245	7976.8
822.418	7234.26
822.592	6551.52
822.765	6016.5
822.938	5739.93
823.112	5209.36
823.285	5022.38
823.458	4531.24
823.631	4103.97
823.805	3848.49
823.978	3883.67
824.151	4115.82
824.324	5015.53
824.497	5744.18
824.671	6440.63
824.844	6655.93
825.017	6759.23
825.19	6163.68
825.363	5581.46
825.536	4981.65
825.709	4594.92
825.882	4192.46
826.055	3837.57
826.228	3341.8
826.401	3240.91
826.574	2925.64
826.747	2715.89
826.92	2585.19
827.093	2310.47
827.266	2101.46
827.439	1932.25
827.612	1716.77
827.785	1600.69
827.957	1488.14
828.13	1414.83
828.303	1295.98
828.476	1160.83
828.649	923.69
828.821	932.2
828.994	676.91
829.167	476.24
829.34	552.88
829.512	348.87
829.685	373.86
829.858	260.38
830.03	270.56
830.203	291.48
830.375	359.24
830.548	251.31
830.721	279.63
830.893	310.18
831.066	480.49
831.238	638.22
831.411	842.6
831.583	790.77
831.756	849.27
831.928	688.58
832.101	695.8
832.273	663.58
832.446	545.66
832.618	571.21
832.79	561.77
832.963	386.45
833.135	421.62
833.307	411.07
833.48	463.83
833.652	369.6
833.824	460.87
833.997	366.46
834.169	343.69
834.341	294.44
834.513	192.25
834.686	225.39
834.858	274.45
835.03	256.49
835.202	153.01
835.374	132.64
835.546	239.65
835.718	140.05
835.891	152.45
836.063	139.49
836.235	135.6
836.407	82.47
836.579	171.15
836.751	9.72
836.923	182.26
837.095	312.59
837.267	382.93
837.439	584.91
837.611	688.95
837.782	822.42
837.954	933.13
838.126	934.79
838.298	1011.81
838.47	998.85
838.642	719.49
838.814	801.87
838.985	633.04
839.157	593.24
839.329	493.45
839.501	675.43
839.672	389.41
839.844	551.95
840.016	402.56
840.188	515.48
840.359	439.77
840.531	332.95
840.702	274.26
840.874	520.67
841.046	225.95
841.217	251.31
841.389	267.6
841.56	259.27
841.732	110.98
841.903	211.14
842.075	95.8
842.246	153.93
842.418	228.35
842.589	104.87
842.761	144.12
842.932	77.48
843.104	222.98
843.275	116.17
843.446	32.86
843.618	42.67
843.789	136.35
843.96	-55.63
844.132	91.54
844.303	117.83
844.474	15.83
844.646	98.02
844.817	-44.34
844.988	27.12
845.159	213.17
845.331	156.34
845.502	-5.46
845.673	69.51
845.844	-69.7
846.015	187.81
846.186	57.67
846.357	75.81
846.528	87.66
846.7	9.16
846.871	23.42
847.042	44.71
847.213	113.57
847.384	414.77
847.555	163.93
847.726	21.57
847.897	166.71
848.067	-38.41
848.238	159.67
848.409	93.21
848.58	145.97
848.751	106.17
848.922	68.96
849.093	122.65
849.264	94.51
849.434	166.71
849.605	42.12
849.776	5.28
849.947	-15.09
850.117	77.11
850.288	124.31
850.459	24.9
850.63	158.38
850.8	156.34
850.971	227.43
851.142	41.19
851.312	-135.79
851.483	-21.2
851.653	75.25
851.824	82.47
851.995	26.01
852.165	176.89
852.336	66.74
852.506	155.04
852.677	158.01
852.847	91.92
853.018	83.58
853.188	19.72
853.358	175.78
853.529	179.66
853.699	132.64
853.87	122.83
854.04	-50.45
854.21	54.89
854.381	66.55
854.551	199.1
854.721	58.96
854.892	112.09
855.062	-1.39
855.232	29.16
855.402	154.49
855.573	125.42
855.743	118.39
855.913	36.93
856.083	60.63
856.253	140.97
856.423	3.8
856.594	51.19
856.764	150.04
856.934	102.1
857.104	55.08
857.274	174.3
857.444	66
857.614	28.97
857.784	100.62
857.954	25.27
858.124	-2.13
858.294	-20.64
858.464	204.84
858.634	4.54
858.804	102.84
858.974	-5.28
859.143	4.35
859.313	-10.09
859.483	113.76
859.653	-5.28
859.823	67.11
859.993	20.09
860.162	141.71
860.332	115.43
860.502	44.71
860.672	112.46
860.841	155.04
861.011	63.59
861.181	-4.54
861.35	247.98
861.52	79.33
861.69	96.36
861.859	85.62
862.029	80.99
862.198	77.11
862.368	106.35
862.538	85.44
862.707	109.5
862.877	149.49
863.046	147.45
863.216	-7.13
863.385	124.13
863.555	142.45
863.724	240.39
863.893	101.91
864.063	283.52
864.232	269.45
864.402	75.99
864.571	53.04
864.74	83.03
864.91	-32.12
865.079	149.3
865.248	120.98
865.418	127.27
865.587	118.39
865.756	105.43
865.925	99.69
866.094	258.53
866.264	167.45
866.433	86.92
866.602	156.52
866.771	45.82
866.94	130.05
867.109	30.64
867.278	116.54
867.448	83.58
867.617	47.11
867.786	161.15
867.955	60.26
868.124	12.31
868.293	110.61
868.462	0.65
868.631	154.49
868.8	221.5
868.969	118.39
869.137	147.27
869.306	91.36
869.475	127.09
869.644	47.67
869.813	9.9
869.982	123.94
870.151	69.51
870.319	72.11
870.488	81.73
870.657	132.46
870.826	43.78
870.995	41.93
871.163	61.37
871.332	121.72
871.501	139.12
871.669	85.25
871.838	202.62
872.007	198.36
872.175	160.04
872.344	107.47
872.512	17.68
872.681	98.95
872.85	178.74
873.018	83.95
873.187	28.42
873.355	232.98
873.524	48.97
873.692	123.57
873.861	166.34
874.029	98.95
874.197	190.03
874.366	221.13
874.534	134.31
874.703	27.68
874.871	138.2
875.039	40.26
875.208	83.58
875.376	182.44
875.544	249.83
875.713	130.05
875.881	126.35
876.049	165.23
876.217	157.45
876.386	118.2
876.554	153.93
876.722	210.77
876.89	219.1
877.058	124.68
877.226	142.82
877.395	79.7
877.563	91.54
877.731	88.21
877.899	60.63
878.067	114.5
878.235	98.76
878.403	84.7
878.571	160.41
878.739	231.5
878.907	457.35
879.075	549.73
879.243	761.33
879.411	1141.77
879.579	1822.29
879.747	2750.51
879.914	3905.14
880.082	5138.08
880.25	6769.6
880.418	8098.25
880.586	9068.49
880.754	9757.72
880.921	9925.26
881.089	9439.86
881.257	9085.15
881.425	8399.08
881.592	7901.46
881.76	7348.12
881.928	7140.59
882.095	6625.01
882.263	6399.9
882.431	5858.78
882.598	5654.4
882.766	5044.22
882.933	4835.22
883.101	4485.51
883.269	4304.64
883.436	3917.55
883.604	3513.97
883.771	3166.3
883.939	2367.48
884.106	1736.2
884.273	1484.62
884.441	1041.06
884.608	730.04
884.776	712.83
884.943	653.4
885.11	353.68
885.278	313.33
885.445	325.36
885.613	324.43
885.78	215.39
885.947	207.06
886.114	319.25
886.282	286.85
886.449	191.33
886.616	243.16
886.783	141.53
886.951	175.78
887.118	118.39
887.285	291.48
887.452	126.9
887.619	124.68
887.786	-19.35
887.953	121.91
888.12	86.55
888.287	192.07
888.455	199.1
888.622	111.17
888.789	122.46
888.956	114.5
889.123	86.73
889.29	77.11
889.456	110.24
889.623	95.8
889.79	134.86
889.957	199.29
890.124	132.46
890.291	172.07
890.458	98.39
890.625	250.38
890.791	138.57
890.958	82.66
891.125	215.21
891.292	162.26
891.459	122.09
891.625	135.79
891.792	149.67
891.959	-13.98
892.125	50.63
892.292	61.37
892.459	147.45
892.625	219.84
892.792	249.27
892.959	53.22
893.125	404.22
893.292	68.4
893.458	284.82
893.625	321.66
893.791	362.2
893.958	382.75
894.124	617.86
894.291	636
894.457	857.78
894.624	970.71
894.79	1043.83
894.957	1097.89
895.123	1121.77
895.289	1099.19
895.456	1127.88
895.622	912.95
895.788	883.88
895.955	799.28
896.121	831.31
896.287	939.42
896.454	656.73
896.62	669.69
896.786	605.45
896.952	628.23
897.119	573.8
897.285	530.29
897.451	360.53
897.617	404.59
897.783	329.25
897.949	179.85
898.115	171.52
898.281	128.94
898.448	290.56
898.614	127.27
898.78	140.79
898.946	173.19
899.112	228.91
899.278	35.27
899.444	79.14
899.61	262.05
899.775	113.57
899.941	124.5
900.107	81.92
900.273	126.9
900.439	153.38
900.605	133.75
900.771	147.82
900.937	157.45
901.102	201.51
901.268	156.34
901.434	74.14
901.6	130.05
901.766	145.79
901.931	246.68
902.097	130.79
902.263	155.41
902.428	171.52
902.594	25.27
902.76	100.62
902.925	79.33
903.091	235.2
903.256	75.81
903.422	278.71
903.588	133.2
903.753	186.88
903.919	413.29
904.084	442.17
904.25	522.15
904.415	825.94
904.581	772.81
904.746	1059.01
904.912	1044.57
905.077	1043.09
905.242	961.64
905.408	951.09
905.573	933.87
905.738	862.04
905.904	1486.28
906.069	1486.28
