Data from FLMT087451__24__14-18-32-799.txt Node

Date: Tue Jun 04 14:18:32 JST 2024
User: power
Spectrometer: FLMT08745
Trigger mode: 0
Integration Time (sec): 5.000000E-5
Scans to average: 11
Electric dark correction enabled: true
Nonlinearity correction enabled: false
Boxcar width: 0
XAxis mode: Wavelengths
Number of Pixels in Spectrum: 3648
>>>>>Begin Spectral Data<<<<<
194.923	-5.57
195.148	-5.57
195.372	-5.57
195.597	14.05
195.821	-12.79
196.046	-0.57
196.271	16.83
196.495	1.28
196.72	16.46
196.944	-35.56
197.169	0.17
197.393	-14.83
197.618	5.35
197.842	-20.19
198.067	21.27
198.291	-6.12
198.516	15.91
198.74	-3.53
198.964	11.65
199.189	-5.75
199.413	-9.83
199.637	12.02
199.862	13.13
200.086	-4.46
200.31	8.5
200.535	-2.79
200.759	6.65
200.983	2.76
201.207	10.91
201.432	-1.13
201.656	11.83
201.88	-3.16
202.104	-8.9
202.328	3.13
202.552	7.2
202.777	-3.72
203.001	12.76
203.225	-0.76
203.449	18.68
203.673	-8.53
203.897	-7.79
204.121	-7.61
204.345	7.76
204.569	-16.68
204.793	17.02
205.017	10.54
205.241	26.46
205.465	14.42
205.689	9.24
205.912	14.24
206.136	3.69
206.36	-12.23
206.584	0.54
206.808	-2.98
207.032	13.68
207.255	3.13
207.479	12.94
207.703	-1.87
207.927	15.54
208.15	2.39
208.374	9.06
208.598	2.39
208.822	-12.6
209.045	-13.34
209.269	8.5
209.492	9.61
209.716	3.13
209.94	7.57
210.163	4.61
210.387	2.95
210.61	11.28
210.834	5.17
211.057	5.54
211.281	-5.2
211.504	16.65
211.728	-3.35
211.951	-9.64
212.175	2.58
212.398	17.76
212.622	0.35
212.845	26.83
213.068	6.46
213.292	-5.01
213.515	-15.38
213.738	2.76
213.962	-4.64
214.185	-3.53
214.408	-18.9
214.631	-16.86
214.855	-9.83
215.078	4.61
215.301	8.32
215.524	-6.31
215.747	-5.38
215.971	18.13
216.194	2.76
216.417	12.94
216.64	-10.75
216.863	13.31
217.086	-2.98
217.309	11.09
217.532	-19.27
217.755	-3.9
217.978	11.65
218.201	-3.9
218.424	-7.05
218.647	24.79
218.87	19.98
219.093	5.54
219.316	-33.15
219.539	2.95
219.762	-21.49
219.985	17.2
220.207	-23.34
220.43	24.24
220.653	-5.2
220.876	16.83
221.099	-14.64
221.321	7.94
221.544	-7.05
221.767	11.65
221.99	-40.37
222.212	0.73
222.435	-12.6
222.658	-2.42
222.88	0.54
223.103	13.5
223.326	-14.64
223.548	-4.64
223.771	15.72
223.993	19.61
224.216	0.54
224.438	17.02
224.661	-22.97
224.883	-6.68
225.106	10.72
225.328	27.2
225.551	0.54
225.773	-4.27
225.996	-14.09
226.218	21.64
226.44	-20.93
226.663	14.42
226.885	-14.64
227.108	1.47
227.33	0.17
227.552	-3.53
227.774	6.83
227.997	12.02
228.219	-3.72
228.441	1.1
228.663	-4.83
228.886	12.76
229.108	-12.23
229.33	18.31
229.552	-1.13
229.774	6.46
229.996	-10.75
230.219	3.5
230.441	-5.38
230.663	17.2
230.885	4.98
231.107	-4.09
231.329	-3.72
231.551	19.98
231.773	2.21
231.995	-5.38
232.217	-18.34
232.439	-3.72
232.661	6.83
232.883	8.87
233.105	-17.23
233.326	-6.12
233.548	-14.27
233.77	6.09
233.992	-15.94
234.214	16.83
234.436	1.65
234.657	22.76
234.879	-19.08
235.101	3.13
235.323	6.28
235.544	8.32
235.766	-0.39
235.988	5.72
236.21	-2.05
236.431	-11.68
236.653	13.31
236.874	19.42
237.096	-13.9
237.318	21.46
237.539	20.72
237.761	16.46
237.982	4.61
238.204	-11.86
238.425	-26.12
238.647	24.79
238.868	-4.64
239.09	9.98
239.311	5.54
239.533	4.61
239.754	-3.35
239.975	7.76
240.197	21.64
240.418	8.87
240.64	1.65
240.861	14.61
241.082	-10.38
241.304	19.42
241.525	-12.79
241.746	1.1
241.967	2.95
242.189	11.83
242.41	9.8
242.631	22.57
242.852	-3.9
243.073	-2.61
243.294	4.06
243.516	11.65
243.737	5.72
243.958	5.72
244.179	-1.13
244.4	-1.13
244.621	0.35
244.842	5.54
245.063	-9.64
245.284	22.57
245.505	-15.75
245.726	-4.46
245.947	-17.05
246.168	14.05
246.389	-3.35
246.61	2.95
246.831	3.87
247.052	5.35
247.272	-13.53
247.493	13.68
247.714	5.35
247.935	15.72
248.156	-4.09
248.376	18.87
248.597	6.09
248.818	8.69
249.039	7.94
249.259	2.02
249.48	2.76
249.701	-4.46
249.921	-1.13
250.142	-0.39
250.363	-5.01
250.583	21.83
250.804	-9.27
251.025	12.02
251.245	-7.79
251.466	12.57
251.686	-15.01
251.907	24.98
252.127	-25.01
252.348	-5.75
252.568	-4.09
252.789	18.87
253.009	6.28
253.23	12.76
253.45	-15.2
253.67	-11.68
253.891	-9.83
254.111	14.42
254.331	9.61
254.552	8.69
254.772	-5.75
254.992	-10.2
255.213	0.17
255.433	21.09
255.653	-17.79
255.873	16.28
256.093	-8.53
256.314	16.65
256.534	-1.13
256.754	-2.05
256.974	-5.01
257.194	-4.83
257.414	-9.46
257.634	15.72
257.855	-1.68
258.075	11.65
258.295	3.69
258.515	6.09
258.735	6.65
258.955	-9.64
259.175	-7.98
259.395	-5.57
259.615	-21.3
259.835	0.91
260.054	-17.79
260.274	-0.57
260.494	5.72
260.714	27.57
260.934	-16.68
261.154	4.43
261.374	-8.53
261.593	-0.94
261.813	-36.86
262.033	-8.16
262.253	7.02
262.472	13.31
262.692	0.91
262.912	14.42
263.132	-15.01
263.351	7.39
263.571	3.13
263.791	1.1
264.01	-20.75
264.23	25.16
264.449	14.61
264.669	4.43
264.888	-0.02
265.108	37.01
265.328	-20.38
265.547	4.98
265.767	-33.15
265.986	8.69
266.205	13.5
266.425	6.83
266.644	6.83
266.864	8.5
267.083	-1.68
267.303	-6.12
267.522	9.43
267.741	8.5
267.961	11.65
268.18	-0.57
268.399	7.94
268.618	21.27
268.838	-3.35
269.057	7.57
269.276	-6.49
269.495	20.35
269.715	5.17
269.934	-18.34
270.153	-12.6
270.372	6.46
270.591	13.5
270.81	-3.16
271.029	24.05
271.249	6.28
271.468	-8.9
271.687	14.98
271.906	-2.98
272.125	3.69
272.344	0.17
272.563	11.28
272.782	-1.87
273.001	8.13
273.22	7.2
273.439	1.47
273.657	4.24
273.876	1.1
274.095	1.1
274.314	-15.2
274.533	1.28
274.752	-7.79
274.971	10.72
275.189	9.8
275.408	6.28
275.627	17.94
275.846	-7.24
276.064	4.98
276.283	-2.79
276.502	14.24
276.72	-7.42
276.939	19.61
277.158	-15.94
277.376	-0.2
277.595	-8.53
277.814	10.17
278.032	10.72
278.251	12.2
278.469	-14.64
278.688	-10.57
278.906	-19.27
279.125	5.72
279.343	1.65
279.562	11.09
279.78	-8.9
279.999	14.42
280.217	-11.49
280.435	-2.42
280.654	-17.05
280.872	-8.35
281.091	3.32
281.309	-14.83
281.527	-15.38
281.746	12.39
281.964	-26.86
282.182	6.09
282.4	-20.75
282.619	18.68
282.837	-14.64
283.055	23.68
283.273	-4.83
283.491	7.94
283.71	-28.9
283.928	19.98
284.146	-2.98
284.364	28.12
284.582	-0.57
284.8	12.76
285.018	0.73
285.236	-20.93
285.454	4.8
285.672	8.32
285.89	-1.68
286.108	-7.79
286.326	7.39
286.544	-3.9
286.762	-12.05
286.98	9.61
287.198	-0.57
287.416	11.46
287.634	-10.01
287.851	3.69
288.069	-9.83
288.287	34.05
288.505	5.17
288.723	11.46
288.94	-30.19
289.158	-3.35
289.376	-0.2
289.594	-0.94
289.811	-20.01
290.029	11.46
290.247	6.83
290.464	16.09
290.682	-2.61
290.9	2.21
291.117	12.02
291.335	-1.87
291.552	-16.49
291.77	22.2
291.987	-8.53
292.205	14.98
292.422	-12.23
292.64	12.02
292.857	-0.94
293.075	6.65
293.292	-10.75
293.51	10.17
293.727	-12.42
293.945	-3.72
294.162	-7.61
294.379	16.28
294.597	4.8
294.814	17.57
295.031	-23.34
295.249	10.17
295.466	22.2
295.683	-0.2
295.9	-5.94
296.118	-0.76
296.335	-23.53
296.552	25.35
296.769	-3.72
296.986	6.65
297.204	8.5
297.421	-8.72
297.638	-0.02
297.855	13.68
298.072	4.98
298.289	8.13
298.506	-2.05
298.723	-21.12
298.94	-0.76
299.157	-2.79
299.374	14.05
299.591	2.95
299.808	5.54
300.025	11.28
300.242	-12.05
300.459	-10.2
300.676	-30.19
300.893	30.35
301.109	2.95
301.326	-3.53
301.543	-5.94
301.76	11.28
301.977	-1.68
302.193	-5.38
302.41	-6.31
302.627	-8.53
302.844	-15.94
303.06	-3.35
303.277	-5.75
303.494	-2.79
303.71	4.06
303.927	10.35
304.144	11.83
304.36	27.01
304.577	-12.05
304.793	0.91
305.01	10.91
305.227	-0.2
305.443	6.28
305.66	8.32
305.876	4.24
306.093	7.02
306.309	-1.87
306.526	23.5
306.742	-5.57
306.958	6.09
307.175	4.98
307.391	33.86
307.608	2.39
307.824	19.61
308.04	-11.68
308.257	6.09
308.473	12.57
308.689	-5.75
308.905	-9.09
309.122	2.58
309.338	-23.16
309.554	10.91
309.77	-6.12
309.986	-6.68
310.203	-16.12
310.419	29.6
310.635	-15.94
310.851	4.06
311.067	-0.94
311.283	1.47
311.499	1.84
311.715	5.72
311.931	-23.71
312.147	12.02
312.363	-2.61
312.579	-13.9
312.795	-30.01
313.011	3.32
313.227	13.68
313.443	7.02
313.659	-10.75
313.875	22.94
314.091	0.73
314.307	14.05
314.523	0.91
314.738	17.94
314.954	-7.05
315.17	7.57
315.386	-14.09
315.602	14.24
315.817	2.02
316.033	13.68
316.249	-6.68
316.465	-21.49
316.68	-14.83
316.896	9.8
317.112	20.9
317.327	15.72
317.543	-3.9
317.758	12.2
317.974	-23.9
318.19	7.39
318.405	-9.27
318.621	22.57
318.836	-1.87
319.052	-4.46
319.267	18.31
319.483	16.46
319.698	14.05
319.914	20.72
320.129	-6.12
320.344	-5.01
320.56	-16.68
320.775	15.16
320.99	7.2
321.206	-6.87
321.421	-2.61
321.636	-1.68
321.852	-9.46
322.067	24.24
322.282	-0.76
322.498	10.17
322.713	22.57
322.928	0.54
323.143	4.06
323.358	12.02
323.574	-26.3
323.789	3.32
324.004	-6.12
324.219	-4.64
324.434	-17.05
324.649	-6.12
324.864	-25.56
325.079	-10.57
325.294	8.5
325.509	33.49
325.724	-15.94
325.939	-0.57
326.154	-2.61
326.369	11.83
326.584	5.17
326.799	3.13
327.014	7.94
327.229	7.02
327.444	-4.27
327.659	10.17
327.873	8.32
328.088	11.65
328.303	-3.9
328.518	19.98
328.733	-14.83
328.947	-7.98
329.162	0.73
329.377	-9.64
329.591	-19.82
329.806	-2.42
330.021	-10.94
330.235	8.69
330.45	-7.98
330.665	-2.79
330.879	-3.9
331.094	-11.49
331.309	-10.2
331.523	27.57
331.738	4.61
331.952	-7.42
332.167	-2.61
332.381	5.17
332.596	5.35
332.81	18.13
333.025	-22.23
333.239	-12.79
333.453	-7.61
333.668	-0.02
333.882	-1.87
334.097	-20.38
334.311	-28.15
334.525	13.13
334.74	1.65
334.954	21.83
335.168	-22.6
335.382	15.16
335.597	-0.02
335.811	13.13
336.025	23.68
336.239	5.17
336.453	-5.75
336.668	7.57
336.882	-1.68
337.096	28.68
337.31	-19.08
337.524	-9.27
337.738	-9.64
337.952	10.72
338.166	-20.56
338.38	18.87
338.594	-17.23
338.808	0.17
339.022	-17.05
339.236	-2.79
339.45	-13.53
339.664	0.73
339.878	7.2
340.092	3.13
340.306	3.69
340.52	-13.9
340.734	-7.05
340.948	-8.16
341.161	-8.16
341.375	-0.57
341.589	-7.61
341.803	1.47
342.017	8.13
342.23	12.02
342.444	-7.98
342.658	18.31
342.871	-3.53
343.085	-5.57
343.299	3.13
343.512	-5.57
343.726	-6.68
343.94	18.13
344.153	-21.49
344.367	-10.38
344.58	-5.2
344.794	16.28
345.008	-15.94
345.221	5.91
345.435	5.72
345.648	27.38
345.862	-12.42
346.075	4.61
346.288	-13.53
346.502	22.57
346.715	-0.94
346.929	7.02
347.142	9.43
347.355	5.35
347.569	-5.94
347.782	-4.64
347.995	-26.67
348.209	7.2
348.422	0.73
348.635	-3.16
348.848	0.73
349.062	-8.9
349.275	20.72
349.488	9.61
349.701	-12.23
349.914	12.57
350.128	-20.56
350.341	11.09
350.554	-2.42
350.767	8.87
350.98	-2.79
351.193	10.17
351.406	-4.09
351.619	-2.42
351.832	-2.42
352.045	11.09
352.258	7.02
352.471	-6.68
352.684	-2.42
352.897	-4.64
353.11	22.38
353.323	0.54
353.536	-1.68
353.748	13.68
353.961	-15.75
354.174	4.8
354.387	6.28
354.6	0.35
354.813	-15.75
355.025	0.73
355.238	-12.05
355.451	6.83
355.664	-43.15
355.876	9.98
356.089	16.65
356.302	-7.42
356.514	-11.12
356.727	-22.23
356.94	-9.09
357.152	-1.68
357.365	-6.49
357.577	-5.75
357.79	4.24
358.002	-11.86
358.215	-21.12
358.427	2.76
358.64	-21.86
358.852	5.35
359.065	5.91
359.277	-3.16
359.49	-16.12
359.702	-5.2
359.915	-25.01
360.127	7.02
360.339	-21.3
360.552	6.83
360.764	-13.53
360.976	8.32
361.189	-7.79
361.401	9.24
361.613	-10.94
361.825	20.16
362.038	-3.9
362.25	-2.61
362.462	12.94
362.674	2.76
362.886	-23.16
363.099	27.01
363.311	-18.16
363.523	13.13
363.735	0.54
363.947	-7.24
364.159	-9.64
364.371	-5.57
364.583	-7.05
364.795	14.24
365.007	8.32
365.219	20.72
365.431	-19.08
365.643	4.06
365.855	6.46
366.067	-15.01
366.279	-19.27
366.491	-5.75
366.703	5.72
366.914	-12.42
367.126	5.35
367.338	-14.09
367.55	-2.79
367.762	8.87
367.974	-12.79
368.185	1.47
368.397	6.46
368.609	5.35
368.82	-10.2
369.032	26.09
369.244	7.2
369.456	8.69
369.667	-9.83
369.879	23.31
370.09	-21.49
370.302	6.83
370.514	-3.16
370.725	-5.57
370.937	-17.42
371.148	0.35
371.36	-3.35
371.571	3.13
371.783	8.13
371.994	-1.68
372.206	-9.64
372.417	-0.2
372.629	-0.57
372.84	2.02
373.051	-12.42
373.263	-18.53
373.474	-20.93
373.685	-16.31
373.897	-24.45
374.108	-2.24
374.319	-17.05
374.531	-7.98
374.742	3.87
374.953	-5.94
375.164	-14.64
375.375	13.31
375.587	13.13
375.798	0.17
376.009	-9.27
376.22	-3.16
376.431	-12.6
376.642	6.46
376.853	-11.31
377.065	4.24
377.276	-15.57
377.487	2.76
377.698	-12.6
377.909	-1.68
378.12	3.69
378.331	-17.6
378.542	-10.75
378.753	-6.12
378.964	-22.23
379.174	10.91
379.385	-2.79
379.596	7.76
379.807	-36.3
380.018	4.61
380.229	4.24
380.44	-1.87
380.65	-12.97
380.861	16.65
381.072	-10.94
381.283	1.28
381.493	-4.09
381.704	10.91
381.915	10.54
382.126	-14.09
382.336	-1.31
382.547	-6.49
382.757	-2.79
382.968	-2.79
383.179	2.39
383.389	14.24
383.6	-37.23
383.81	13.87
384.021	-2.61
384.231	-13.71
384.442	-2.42
384.652	18.87
384.863	-20.56
385.073	22.2
385.284	-12.42
385.494	13.5
385.705	4.24
385.915	-10.2
386.125	-0.39
386.336	-3.72
386.546	17.39
386.756	28.12
386.967	9.24
387.177	-1.87
387.387	-22.42
387.598	7.02
387.808	-26.3
388.018	6.65
388.228	-8.9
388.439	10.35
388.649	-24.27
388.859	17.57
389.069	-0.76
389.279	10.35
389.489	-3.9
389.699	22.38
389.909	-25.01
390.12	0.35
390.33	-26.86
390.54	9.61
390.75	-30.93
390.96	-7.24
391.17	4.98
391.38	4.06
391.59	-24.08
391.799	8.87
392.009	-10.2
392.219	-7.05
392.429	-16.68
392.639	-4.27
392.849	2.95
393.059	8.5
393.269	-7.98
393.478	-13.53
393.688	-12.97
393.898	-14.64
394.108	-10.75
394.317	-10.57
394.527	-12.42
394.737	-2.79
394.947	3.32
395.156	6.46
395.366	-18.34
395.576	8.5
395.785	10.54
395.995	27.57
396.204	-7.98
396.414	-10.94
396.624	-3.9
396.833	5.17
397.043	-8.16
397.252	-6.68
397.462	-1.13
397.671	25.53
397.881	0.35
398.09	3.13
398.299	-16.68
398.509	4.43
398.718	-19.82
398.928	23.5
399.137	-6.68
399.346	40.53
399.556	-28.34
399.765	-10.01
399.974	-6.68
400.184	1.47
400.393	-13.34
400.602	-18.53
400.811	3.13
401.021	-4.09
401.23	-11.86
401.439	-8.35
401.648	-0.57
401.857	-11.31
402.066	7.39
402.276	13.68
402.485	2.21
402.694	10.91
402.903	-11.86
403.112	-9.64
403.321	-18.16
403.53	-9.46
403.739	-8.53
403.948	8.5
404.157	-1.87
404.366	11.83
404.575	-28.34
404.784	-1.68
404.993	-10.01
405.202	17.76
405.411	-1.68
405.619	5.54
405.828	5.17
406.037	-1.5
406.246	-24.64
406.455	10.91
406.663	-20.93
406.872	-9.09
407.081	-11.31
407.29	14.24
407.498	-13.71
407.707	9.98
407.916	2.39
408.124	14.98
408.333	5.17
408.542	-16.68
408.75	-1.68
408.959	0.73
409.168	1.28
409.376	38.31
409.585	-19.64
409.793	-2.05
410.002	-0.02
410.21	8.13
410.419	-11.49
410.627	9.06
410.836	2.76
411.044	4.24
411.253	13.13
411.461	22.94
411.669	21.83
411.878	26.64
412.086	8.69
412.294	24.98
412.503	40.34
412.711	34.97
412.919	26.64
413.128	29.05
413.336	8.13
413.544	24.79
413.752	17.94
413.961	31.46
414.169	16.28
414.377	34.79
414.585	12.02
414.793	50.34
415.001	30.16
415.209	29.79
415.418	26.83
415.626	61.26
415.834	48.49
416.042	62.74
416.25	50.89
416.458	53.49
416.666	77.18
416.874	59.41
417.082	73.29
417.29	71.81
417.498	101.25
417.706	92.73
417.913	67.56
418.121	91.44
418.329	96.25
418.537	89.59
418.745	99.21
418.953	62.74
419.161	86.44
419.368	119.95
419.576	123.46
419.784	120.32
419.992	156.79
420.199	140.68
420.407	162.34
420.615	153.64
420.822	184.74
421.03	176.41
421.238	228.06
421.445	227.32
421.653	211.95
421.861	225.65
422.068	253.61
422.276	296.37
422.483	296.37
422.691	315.99
422.898	342.28
423.106	343.02
423.313	385.05
423.521	389.67
423.728	454.47
423.936	400.97
424.143	500.57
424.35	515.19
424.558	558.88
424.765	538.15
424.973	617.01
425.18	585.91
425.387	749
425.594	695.69
425.802	784.55
426.009	759.74
426.216	898.22
426.424	822.5
426.631	1030.4
426.838	955.61
427.045	1122.59
427.252	1085.38
427.459	1248.1
427.667	1199.97
427.874	1417.12
428.081	1268.84
428.288	1523.94
428.495	1507.28
428.702	1754.05
428.909	1725.36
429.116	1825.14
429.323	1909.93
429.53	1970.47
429.737	2141.15
429.944	2254.26
430.151	2262.78
430.358	2429.02
430.565	2344.79
430.772	2655.8
430.979	2674.13
431.185	2914.24
431.392	2900.54
431.599	3182.49
431.806	3107.7
432.013	3400.01
432.219	3391.49
432.426	3566.99
432.633	3612.91
432.84	3875.41
433.046	3874.12
433.253	4196.98
433.46	4161.99
433.666	4437.27
433.873	4536.68
434.08	4706.26
434.286	4981.54
434.493	5212.76
434.7	5120.76
434.906	5393.63
435.113	5551.73
435.319	5847.93
435.526	5893.29
435.732	6152.83
435.939	6165.42
436.145	6524.57
436.352	6664.71
436.558	6971.83
436.765	6998.68
436.971	7363
437.177	7408.36
437.384	8012.98
437.59	7842.11
437.796	8057.6
438.003	8299.93
438.209	8655
438.415	8803.65
438.622	9210.01
438.828	9435.49
439.034	9726.14
439.24	9829.62
439.447	10280.41
439.653	10347.61
439.859	11010.17
440.065	10892.25
440.271	11496.87
440.477	11537.23
440.683	12111.67
440.89	12444.71
441.096	13205.4
441.302	12979.73
441.508	13524.93
441.714	13785.58
441.92	14300.42
442.126	14583.48
442.332	15332.31
442.538	15569.46
442.744	15955.08
442.95	16525.45
443.156	16669.48
443.361	17347.04
443.567	17958.14
443.773	18212.87
443.979	18852.85
444.185	19130.36
444.391	19821.62
444.596	20298.87
444.802	20878.13
445.008	21224.5
445.214	22067.2
445.42	22181.05
445.625	23436.76
445.831	23639.29
446.037	24564.92
446.242	25002.74
446.448	25404.1
446.654	25840.99
446.859	26218.83
447.065	26900.47
447.27	27485.47
447.476	27765.01
447.682	28372.04
447.887	29168.26
448.093	29882.48
448.298	29589.98
448.504	30710.55
448.709	30805.7
448.915	31288.51
449.12	31162.07
449.325	32111.03
449.531	32787.29
449.736	32259.68
449.942	32850.24
450.147	33201.98
450.352	33490.03
450.558	33153.66
450.763	33177.72
450.968	33698.3
451.174	34065.96
451.379	33280.65
451.584	33122.93
451.789	33591.3
451.995	33581.11
452.2	33338.04
452.405	33543.35
452.61	32882.08
452.815	33305.09
453.02	32243.95
453.226	32304.3
453.431	32246.54
453.636	31810.75
453.841	31057.66
454.046	30943.81
454.251	30921.78
454.456	30366.77
454.661	29774.92
454.866	29473.17
455.071	28937.97
455.276	28731.37
455.481	27827.21
455.686	27764.82
455.891	27877.01
456.095	26843.64
456.3	26689.24
456.505	25976.69
456.71	25850.62
456.915	25259.51
457.12	24815.02
457.324	24227.8
457.529	24268.35
457.734	23369.74
457.939	23427.32
458.144	22922.29
458.348	22950.06
458.553	22648.86
458.758	22141.43
458.962	21997.41
459.167	21898.18
459.372	21377.42
459.576	21678.25
459.781	21151.56
459.985	21025.31
460.19	20874.99
460.394	20827.59
460.599	20678.38
460.803	20425.68
461.008	20315.9
461.212	20172.06
461.417	20139.66
461.621	20021.55
461.826	19922.51
462.03	20383.48
462.235	19967.5
462.439	20247.96
462.643	19963.05
462.848	20205.94
463.052	20334.42
463.256	20404.58
463.461	19996.56
463.665	20399.21
463.869	20333.31
464.074	20392.36
464.278	20164.84
464.482	20354.23
464.686	20409.21
464.89	20707.08
465.095	20760.76
465.299	20620.62
465.503	20447.16
465.707	20549.53
465.911	20542.5
466.115	20614.51
466.319	20909.97
466.523	20707.26
466.727	20681.16
466.931	20716.33
467.135	20622.47
467.339	20549.72
467.543	20923.86
467.747	20769.46
467.951	20781.68
468.155	20625.25
468.359	20625.07
468.563	20735.96
468.767	20091.72
468.971	20171.88
469.175	20361.08
469.379	20271.84
469.582	20164.66
469.786	20198.72
469.99	20028.77
470.194	19936.77
470.397	19785.15
470.601	19614.46
470.805	20025.26
471.009	19508.2
471.212	19530.79
471.416	19365.65
471.62	19229.77
471.823	19348.62
472.027	19140.35
472.23	19103.51
472.434	19283.27
472.638	19163.68
472.841	18993.18
473.045	19091.48
473.248	19159.42
473.452	18892.47
473.655	18711.97
473.859	19006.32
474.062	19058.53
474.266	18834.9
474.469	18979.29
474.672	19022.98
474.876	18823.23
475.079	19214.96
475.283	19146.46
475.486	19335.29
475.689	19233.84
475.893	19127.77
476.096	19467.1
476.299	19363.06
476.502	19506.16
476.706	19736.28
476.909	19557.26
477.112	20141.33
477.315	19831.06
477.519	20327.94
477.722	20289.62
477.925	20191.32
478.128	20391.62
478.331	20928.3
478.534	20847.22
478.737	20939.96
478.94	21232.83
479.143	21286.89
479.346	21838.38
479.549	21926.13
479.752	21930.94
479.955	22263.99
480.158	22519.83
480.361	22441.89
480.564	22778.27
480.767	22828.25
480.97	23514.33
481.173	23406.21
481.376	23714.08
481.579	23848.48
481.782	24057.12
481.984	24295.75
482.187	24553.81
482.39	24653.59
482.593	24761.71
482.796	25011.63
482.998	25168.43
483.201	25716.22
483.404	25497.21
483.606	25885.61
483.809	25894.49
484.012	26248.83
484.214	26331.39
484.417	26521.7
484.62	26752.74
484.822	27050.61
485.025	27187.23
485.227	27462.33
485.43	27557.67
485.632	27710.77
485.835	27999.75
486.037	27954.58
486.24	28417.21
486.442	28335.38
486.645	28791.16
486.847	28884.09
487.05	29108.28
487.252	29347.1
487.455	29023.87
487.657	29537.22
487.859	29783.25
488.062	29931.91
488.264	30260.51
488.466	30135.55
488.668	30657.6
488.871	30699.44
489.073	30867.17
489.275	30979.54
489.477	31307.21
489.68	31340.53
489.882	31460.86
490.084	31676.54
490.286	31925.53
490.488	31987.92
490.69	32409.27
490.893	32339.47
491.095	32310.59
491.297	32812.47
491.499	32766.74
491.701	33035.18
491.903	32930.77
492.105	33448.01
492.307	33382.29
492.509	33811.97
492.711	34073.36
492.913	34029.67
493.115	34018.01
493.317	34535.81
493.518	34207.58
493.72	34864.96
493.922	34889.03
494.124	35019.36
494.326	34979.19
494.528	35401.46
494.73	35516.79
494.931	35759.49
495.133	35846.69
495.335	35968.13
495.537	36029.78
495.738	36507.59
495.94	36281.36
496.142	36684.2
496.343	36580.71
496.545	36961.52
496.747	37114.62
496.948	37077.77
497.15	37617.6
497.351	37430.44
497.553	37599.65
497.755	37871.97
497.956	37961.75
498.158	37979.89
498.359	38086.71
498.561	38534.9
498.762	38406.8
498.964	38565.82
499.165	39134.71
499.366	38677.82
499.568	39079.17
499.769	39231.53
499.971	39173.77
500.172	39389.63
500.373	39639.92
500.575	39428.69
500.776	39852.26
500.977	39723.6
501.178	40112.92
501.38	40277.31
501.581	40213.07
501.782	40355.25
501.983	40105.88
502.185	40266.76
502.386	40938.39
502.587	40510.75
502.788	41098.71
502.989	40746.97
503.19	41528.21
503.391	41047.25
503.593	41690.01
503.794	41301.98
503.995	41516.91
504.196	41645.76
504.397	41497.29
504.598	41971.21
504.799	41870.32
505	42018.97
505.201	41972.69
505.402	42196.51
505.602	42323.14
505.803	42187.25
506.004	42429.4
506.205	42690.24
506.406	42639.33
506.607	42810.76
506.808	42800.39
507.008	42902.4
507.209	43047.72
507.41	43191.01
507.611	43176.2
507.812	43213.22
508.012	43473.88
508.213	43325.78
508.414	43792.85
508.614	43528.49
508.815	43592.18
509.016	44216.24
509.216	43966.13
509.417	44055.18
509.617	44099.98
509.818	44159.59
510.019	44313.8
510.219	44599.26
510.42	44372.48
510.62	44602.59
510.821	44632.03
511.021	44771.24
511.222	44866.58
511.422	44552.98
511.623	44828.26
511.823	45428.07
512.023	44999.13
512.224	45205.18
512.424	45677.25
512.624	45492.13
512.825	45541.92
513.025	45744.08
513.225	45904.4
513.426	45794.07
513.626	45880.52
513.826	46001.78
514.026	46134.51
514.227	46252.07
514.427	46171.72
514.627	46271.32
514.827	46563.26
515.027	45887.92
515.228	46774.12
515.428	46807.26
515.628	46556.6
515.828	46784.86
516.028	46879.46
516.228	47113.27
516.428	47063.48
516.628	46893.9
516.828	47071.99
517.028	47205.47
517.228	47459.09
517.428	47437.62
517.628	47134.75
517.828	47766.58
518.028	47534.25
518.228	47223.05
518.428	47515
518.627	47493.89
518.827	47407.81
519.027	47526.85
519.227	48006.32
519.427	47757.14
519.626	47835.82
519.826	47749.55
520.026	48004.66
520.226	47920.98
520.425	48003.55
520.625	48024.83
520.825	48152.94
521.024	47871.37
521.224	47850.08
521.424	48171.83
521.623	48118.88
521.823	48003.36
522.023	48013.91
522.222	48233.66
522.422	48053.16
522.621	48302.52
522.821	48447.29
523.02	47890.25
523.22	47934.68
523.419	48187.93
523.619	48032.43
523.818	48391.38
524.017	48219.22
524.217	47990.77
524.416	48085.19
524.616	48276.79
524.815	48136.1
525.014	48354.36
525.214	48217.74
525.413	48605.95
525.612	48207.18
525.812	48683.7
526.011	47923.76
526.21	48660.37
526.409	48350.29
526.608	48437.11
526.808	48454.33
527.007	48324.37
527.206	48156.09
527.405	48130.17
527.604	48339.55
527.803	48401.38
528.003	48252.35
528.202	48704.62
528.401	48285.12
528.6	48143.32
528.799	48812.92
528.998	48386.57
529.197	48100
529.396	48607.43
529.595	48564.66
529.794	48667.41
529.993	48548.37
530.192	48705.36
530.39	48536.15
530.589	48740.72
530.788	48652.04
530.987	48348.07
531.186	48660.56
531.385	48556.33
531.583	48959.54
531.782	48710.91
531.981	48663.33
532.18	48505.42
532.379	48786.26
532.577	48889.56
532.776	48787
532.975	48895.3
533.173	48684.99
533.372	48896.22
533.571	48824.02
533.769	48764.41
533.968	49344.6
534.166	48565.77
534.365	49225.56
534.564	49046.55
534.762	48895.67
534.961	49354.41
535.159	48813.66
535.358	49271.29
535.556	49165.95
535.755	49220.01
535.953	49021.18
536.151	49219.82
536.35	49208.72
536.548	49035.99
536.747	49335.16
536.945	49229.08
537.143	49097.83
537.342	49263.7
537.54	49392.92
537.738	49567.49
537.937	49575.45
538.135	49283.32
538.333	49459.01
538.531	49556.57
538.73	49658.39
538.928	49446.79
539.126	49529.35
539.324	49788.16
539.522	49696.34
539.72	49654.31
539.919	49713.74
540.117	50002.72
540.315	49800.93
540.513	49894.24
540.711	49903.86
540.909	49891.83
541.107	50054.19
541.305	50107.32
541.503	50021.42
541.701	49761.5
541.899	50355.2
542.097	49936.45
542.295	50323.55
542.493	49922.93
542.691	50139.53
542.888	50127.31
543.086	50260.23
543.284	50557.17
543.482	50076.77
543.68	50111.95
543.878	50520.15
544.075	50317.81
544.273	50506.45
544.471	50218.58
544.669	50415.37
544.866	50390.01
545.064	50480.16
545.262	50580.69
545.459	50645.29
545.657	50766.92
545.855	50500.53
546.052	50860.6
546.25	50922.43
546.447	50472.2
546.645	50790.06
546.842	50824.68
547.04	50538.11
547.238	50921.5
547.435	51028.51
547.633	51012.58
547.83	50695.09
548.027	50806.17
548.225	51124.77
548.422	51277.69
548.62	50437.4
548.817	51291.57
549.014	50978.71
549.212	51216.78
549.409	51207.15
549.606	51191.6
549.804	51197.16
550.001	51058.68
550.198	51529.27
550.396	50777.66
550.593	51657.19
550.79	50990.18
550.987	51568.52
551.184	50975.56
551.382	51746.05
551.579	51191.42
551.776	51508.17
551.973	51273.06
552.17	51567.78
552.367	51800.3
552.564	51139.95
552.761	51500.39
552.958	51570.18
553.155	51632.94
553.353	51726.62
553.55	51591.66
553.746	51574.63
553.943	51820.85
554.14	51561.3
554.337	51663.86
554.534	51915.26
554.731	51658.3
554.928	51979.87
555.125	51922.66
555.322	52041.15
555.519	51827.88
555.715	51694.4
555.912	52037.63
556.109	51915.07
556.306	52070.21
556.503	51856.94
556.699	52295.88
556.896	51812.51
557.093	51992.27
557.289	51901
557.486	51993.57
557.683	52411.4
557.879	52105.2
558.076	52186.47
558.273	52432.69
558.469	52059.66
558.666	52332.16
558.862	52088.17
559.059	52055.21
559.255	52111.68
559.452	52459.53
559.648	52031.89
559.845	52626.33
560.041	52146.11
560.238	52583.01
560.434	52433.43
560.631	52558.39
560.827	52832.37
561.023	52140.56
561.22	52717.97
561.416	52369.74
561.612	52483.04
561.809	52423.25
562.005	52315.13
562.201	52556.72
562.398	52484.34
562.594	52427.13
562.79	52763.51
562.986	52558.94
563.182	52558.57
563.379	52730.55
563.575	52612.63
563.771	52509.51
563.967	53000.84
564.163	52630.59
564.359	52768.88
564.555	52849.59
564.751	52522.1
564.947	52636.7
565.144	52721.11
565.34	52717.6
565.536	53241.13
565.732	52699.64
565.928	53083.03
566.123	52640.58
566.319	53071.37
566.515	52773.87
566.711	52989.36
566.907	53048.79
567.103	52988.44
567.299	53006.58
567.495	53418.11
567.691	52799.05
567.886	53188.93
568.082	53225.4
568.278	53171.52
568.474	53325.73
568.669	53574.91
568.865	53412.74
569.061	53210.4
569.257	53604.35
569.452	53343.32
569.648	53258.9
569.844	53631.93
570.039	53340.36
570.235	53896.11
570.43	53658.41
570.626	53689.51
570.822	53515.86
571.017	53522.52
571.213	53654.7
571.408	53816.69
571.604	53965.16
571.799	53873.34
571.995	54161.02
572.19	53727.09
572.385	53855.2
572.581	53786.14
572.776	53988.49
572.972	53946.09
573.167	54064.02
573.362	53703.02
573.558	53752.27
573.753	54145.1
573.948	53959.79
574.144	54011.81
574.339	54186.76
574.534	54131.96
574.729	53928.14
574.925	54209.34
575.12	54109
575.315	54257.1
575.51	54385.95
575.705	54351.7
575.9	54146.58
576.096	54380.21
576.291	54181.57
576.486	54745.47
576.681	54384.1
576.876	54460.19
577.071	53980.53
577.266	54384.29
577.461	54398.73
577.656	54177.5
577.851	54798.97
578.046	54413.35
578.241	54583.85
578.436	54578.11
578.631	54400.95
578.826	54502.95
579.021	54378.55
579.215	54711.77
579.41	54872.09
579.605	54526.46
579.8	54757.31
579.995	54762.31
580.189	54443.16
580.384	54624.21
580.579	54201.75
580.774	54741.21
580.968	54435.01
581.163	54982.24
581.358	54570.34
581.552	54954.47
581.747	54769.16
581.942	54919.86
582.136	54676.6
582.331	54425.38
582.526	54421.31
582.72	54563.86
582.915	54514.24
583.109	54447.97
583.304	54769.16
583.498	54472.78
583.693	54425.2
583.887	54608.29
584.082	54576.26
584.276	54893.38
584.471	54158.62
584.665	54736.77
584.859	54255.99
585.054	54550.34
585.248	54283.76
585.442	54783.23
585.637	54462.78
585.831	54510.36
586.025	54683.45
586.22	54209.71
586.414	54427.98
586.608	54126.22
586.802	54327.64
586.997	54162.88
587.191	54116.41
587.385	54206.01
587.579	53856.68
587.773	54414.83
587.967	54105.12
588.162	54162.88
588.356	54201.01
588.55	54220.26
588.744	53801.51
588.938	54054.39
589.132	54042.17
589.326	53939.43
589.52	54187.68
589.714	53695.8
589.908	54108.45
590.102	53868.34
590.296	53821.87
590.49	53970.34
590.684	53904.81
590.877	53706.17
591.071	53325.36
591.265	54088.64
591.459	53575.66
591.653	53570.47
591.847	53878.71
592.04	53307.78
592.234	53304.63
592.428	53503.27
592.622	53083.22
592.815	53545.48
593.009	53286.3
593.203	53524.38
593.397	53024.91
593.59	53570.1
593.784	53165.97
593.977	53084.33
594.171	53064.34
594.365	53100.25
594.558	52481.19
594.752	53170.04
594.945	52838.85
595.139	52955.48
595.332	52692.79
595.526	52604.11
595.719	52764.43
595.913	52476.19
596.106	52548.76
596.3	52535.25
596.493	52461.01
596.687	52131.86
596.88	52327.16
597.073	52055.77
597.267	51980.05
597.46	52017.26
597.653	51593.14
597.847	52050.22
598.04	51772.34
598.233	52047.62
598.426	51494.28
598.62	51688.48
598.813	51386.17
599.006	51319.34
599.199	51389.5
599.392	51076.64
599.586	50743.04
599.779	51044.8
599.972	51137.36
600.165	50995.18
600.358	50681.76
600.551	51018.88
600.744	50319.47
600.937	50444.99
601.13	50450.54
601.323	50386.67
601.516	50253.57
601.709	50461.28
601.902	49820.93
602.095	49707.63
602.288	49583.6
602.481	50027.9
602.674	49555.09
602.867	49556.57
603.06	49583.97
603.252	49077.46
603.445	49348.86
603.638	48793.29
603.831	49422.91
604.024	48741.83
604.216	48722.2
604.409	48613.35
604.602	48582.06
604.795	48725.17
604.987	48162.38
605.18	48163.31
605.373	48165.35
605.565	48094.44
605.758	47962.45
605.951	47893.58
606.143	47524.44
606.336	47883.03
606.528	47285.44
606.721	47391.52
606.913	47002.01
607.106	47230.83
607.298	46769.87
607.491	46838.36
607.683	46554.01
607.876	46267.99
608.068	46176.72
608.261	46594.18
608.453	45862.38
608.646	46172.83
608.838	45688.54
609.03	45485.46
609.223	45463.99
609.415	45531.74
609.607	45018.2
609.8	45538.59
609.992	45089.85
610.184	44830.85
610.376	44919.53
610.569	44553.72
610.761	44630.36
610.953	44784.94
611.145	44353.04
611.337	44304.54
611.529	44149.22
611.722	44067.77
611.914	43989.64
612.106	43853.57
612.298	43730.1
612.49	43595.14
612.682	43378.91
612.874	43435.56
613.066	43476.1
613.258	43257.28
613.45	42904.62
613.642	42893.88
613.834	42693.02
614.026	43221.55
614.218	42538.44
614.41	42160.97
614.602	42320.92
614.793	42437.54
614.985	42464.76
615.177	42084.51
615.369	41846.62
615.561	42087.66
615.753	41558.94
615.944	41779.42
616.136	41638.36
616.328	41618.36
616.52	41328.64
616.711	41318.46
616.903	41267.18
617.095	41040.03
617.286	40857.12
617.478	40931.54
617.67	40769.19
617.861	40658.3
618.053	40674.77
618.244	40608.87
618.436	40480.76
618.627	40523.71
618.819	40282.86
619.01	40428
619.202	40203.26
619.393	39829.3
619.585	40027.57
619.776	39930.75
619.968	39710.82
620.159	39865.59
620.351	39519.4
620.542	39435.73
620.733	39230.61
620.925	39224.87
621.116	38980.32
621.307	38986.61
621.499	38716.88
621.69	38607.1
621.881	38323.49
622.072	38668.01
622.264	38232.78
622.455	38006.37
622.646	38193.16
622.837	37702.39
623.028	37671.1
623.22	37306.04
623.411	37428.96
623.602	37278.45
623.793	37159.05
623.984	37082.59
624.175	36891.91
624.366	36841
624.557	36597.19
624.748	36419.84
624.939	36594.6
625.13	35827.25
625.321	36226.19
625.512	35895.19
625.703	35587.14
625.894	35686
626.085	35342.4
626.276	35225.4
626.467	34937.72
626.658	34801.65
626.848	34786.1
627.039	34410.66
627.23	34428.44
627.421	34050.22
627.612	33954.14
627.802	33702
627.993	33522.24
628.184	33266.58
628.375	33276.03
628.565	33135.7
628.756	32900.22
628.947	32944.28
629.137	32635.67
629.328	32543.85
629.519	32093.07
629.709	31938.3
629.9	31925.16
630.09	31786.5
630.281	31742.07
630.471	31183.36
630.662	31445.87
630.852	31063.21
631.043	30817
631.233	30600.03
631.424	30503.58
631.614	30526.35
631.805	30270.32
631.995	29942.28
632.185	29766.78
632.376	29843.79
632.566	29657
632.756	29548.7
632.947	29261.94
633.137	29088.1
633.327	29085.33
633.518	28795.05
633.708	28741.92
633.898	28606.22
634.088	28464.6
634.279	28338.71
634.469	28130.63
634.659	27907.93
634.849	27682.26
635.039	27552.48
635.229	27329.96
635.42	27364.77
635.61	26974.15
635.8	26886.95
635.99	26970.82
636.18	26801.8
636.37	26292.52
636.56	26464.13
636.75	26278.08
636.94	25965.4
637.13	25986.32
637.32	25798.6
637.51	25709.74
637.7	25597.37
637.89	25175.28
638.079	25387.06
638.269	25056.61
638.459	24839.83
638.649	24607.5
638.839	24431.63
639.029	24469.58
639.218	24345.73
639.408	24158.57
639.598	23939.56
639.788	23796.09
639.977	23773.32
640.167	23657.62
640.357	23567.09
640.546	23401.96
640.736	23036.89
640.926	23172.77
641.115	22734.39
641.305	22694.4
641.495	22532.42
641.684	22393.39
641.874	22316.75
642.063	22227.52
642.253	21871.33
642.442	22028.32
642.632	21792.29
642.821	21628.82
643.011	21630.86
643.2	21408.7
643.39	21402.41
643.579	21044.56
643.768	21048.63
643.958	20930.15
644.147	20854.62
644.336	20584.34
644.526	20518.43
644.715	20225.38
644.904	20324.79
645.094	20092.46
645.283	20032.85
645.472	19812.92
645.661	19672.41
645.851	19653.34
646.04	19433.78
646.229	19360.65
646.418	19094.26
646.607	19187.93
646.796	18939.68
646.986	18877.66
647.175	18733.08
647.364	18562.58
647.553	18450.94
647.742	18442.06
647.931	18265.08
648.12	18059.96
648.309	18080.14
648.498	17798.01
648.687	17775.79
648.876	17697.11
649.065	17585.11
649.254	17451.26
649.443	17195.98
649.632	17174.32
649.82	17119.52
650.009	16905.33
650.198	16913.84
650.387	16823.87
650.576	16633.19
650.765	16569.51
650.953	16453.25
651.142	16249.98
651.331	16282.01
651.52	16155.38
651.708	15946.56
651.897	15930.45
652.086	15821.78
652.274	15764.95
652.463	15626.66
652.652	15385.26
652.84	15369.34
653.029	15235.68
653.217	15184.77
653.406	15108.31
653.594	14970.94
653.783	14885.79
653.972	14625.68
654.16	14533.49
654.349	14475.92
654.537	14575.89
654.725	14391.69
654.914	14219.89
655.102	14165.83
655.291	14105.11
655.479	13845.01
655.667	13986.81
655.856	13761.33
656.044	13763.55
656.232	13524.55
656.421	13512.52
656.609	13436.99
656.797	13234.28
656.986	13123.76
657.174	13068.03
657.362	13065.63
657.55	12976.95
657.738	12802.56
657.927	12723.14
658.115	12691.67
658.303	12534.69
658.491	12515.62
658.679	12416.21
658.867	12277.92
659.055	12285.88
659.243	11972.64
659.431	12113.89
659.619	11921.55
659.807	11807.51
659.995	11732.35
660.183	11762.52
660.371	11535.38
660.559	11452.25
660.747	11395.98
660.935	11341.55
661.123	11151.98
661.311	11161.79
661.499	11194
661.687	11062.19
661.875	10792.09
662.062	10889.84
662.25	10719.71
662.438	10795.24
662.626	10474.6
662.813	10462.94
663.001	10416.84
663.189	10394.26
663.377	10200.8
663.564	10223.76
663.752	9929.41
663.94	10070.84
664.127	9842.58
664.315	9822.96
664.502	9701.7
664.69	9670.79
664.878	9619.88
665.065	9554.53
665.253	9376.25
665.44	9385.69
665.628	9293.5
665.815	9242.77
666.003	9094.3
666.19	9072.09
666.378	8988.6
666.565	8894.74
666.752	8777.74
666.94	8877.34
667.127	8619.45
667.315	8700.17
667.502	8506.16
667.689	8500.79
667.877	8336.03
668.064	8338.43
668.251	8388.6
668.438	8154.6
668.626	8157.01
668.813	8060.74
669	7963.55
669.187	7899.13
669.374	7803.6
669.562	7789.9
669.749	7672.72
669.936	7686.97
670.123	7493.52
670.31	7521.29
670.497	7384.48
670.684	7499.81
670.871	7199.17
671.058	7330.05
671.245	7133.45
671.432	7052.73
671.619	7064.21
671.806	7074.58
671.993	6791.33
672.18	6904.45
672.367	6764.12
672.554	6744.13
672.741	6605.65
672.928	6622.87
673.115	6633.42
673.302	6530.31
673.488	6372.21
673.675	6474.95
673.862	6263.35
674.049	6257.62
674.235	6210.78
674.422	6150.24
674.609	5915.5
674.796	6141.36
674.982	5918.09
675.169	5950.31
675.356	5853.86
675.542	5813.13
675.729	5684.1
675.916	5718.53
676.102	5601.53
676.289	5631.33
676.475	5388.82
676.662	5479.53
676.848	5370.12
677.035	5352.53
677.221	5262.75
677.408	5218.87
677.594	5087.99
677.781	5207.58
677.967	5015.42
678.154	5125.57
678.34	4948.96
678.526	4923.41
678.713	4774.76
678.899	4868.99
679.085	4637.39
679.272	4755.87
679.458	4621.66
679.644	4612.03
679.831	4506.32
680.017	4602.4
680.203	4390.62
680.389	4470.22
680.576	4293.24
680.762	4356.56
680.948	4200.68
681.134	4220.86
681.32	4147.73
681.506	4199.2
681.692	4033.33
681.879	4097.57
682.065	3890.04
682.251	3999.63
682.437	3862.27
682.623	3957.79
682.809	3745.27
682.995	3892.08
683.181	3656.04
683.367	3741.75
683.553	3551.07
683.739	3654.56
683.924	3504.05
684.11	3568.1
684.296	3379.65
684.482	3479.8
684.668	3327.81
684.854	3412.97
685.04	3227.84
685.225	3337.62
685.411	3104.55
685.597	3310.04
685.783	3047.34
685.968	3150.27
686.154	3053.08
686.34	3076.78
686.526	2890.36
686.711	2972.74
686.897	2836.86
687.083	2904.43
687.268	2722.08
687.454	2827.79
687.639	2767.99
687.825	2772.43
688.01	2606.93
688.196	2653.95
688.382	2596.01
688.567	2634.88
688.752	2464.38
688.938	2583.97
689.123	2379.41
689.309	2533.06
689.494	2377.74
689.68	2398.48
689.865	2292.22
690.05	2406.81
690.236	2244.45
690.421	2241.31
690.606	2187.06
690.792	2271.11
690.977	2090.8
691.162	2180.03
691.348	2050.81
691.533	2150.96
691.718	2022.49
691.903	2034.89
692.089	1957.32
692.274	2027.49
692.459	1888.09
692.644	1969.17
692.829	1845.32
693.014	1879.94
693.199	1749.8
693.384	1796.26
693.569	1723.88
693.755	1764.42
693.94	1633.35
694.125	1747.02
694.31	1633.17
694.495	1661.49
694.68	1507.84
694.864	1638.72
695.049	1496.36
695.234	1554.3
695.419	1462.11
695.604	1464.89
695.789	1423.42
695.974	1473.96
696.159	1392.5
696.344	1410.09
696.528	1325.67
696.713	1375.1
696.898	1195.9
697.083	1370.66
697.267	1215.34
697.452	1333.08
697.637	1203.86
697.822	1225.7
698.006	1117.04
698.191	1185.35
698.375	1113.15
698.56	1153.69
698.745	1060.76
698.929	1102.23
699.114	1019.29
699.298	1086.12
699.483	987.82
699.668	1034.47
699.852	964.31
700.037	986.34
700.221	909.51
700.405	961.16
700.59	942.46
700.774	930.43
700.959	879.89
701.143	951.35
701.328	845.83
701.512	887.29
701.696	805.1
701.881	858.97
702.065	766.96
702.249	818.24
702.433	764.56
702.618	738.64
702.802	705.13
702.986	720.31
703.17	706.06
703.355	737.34
703.539	659.03
703.723	653.48
703.907	652.37
704.091	694.95
704.275	620.71
704.46	638.11
704.644	614.42
704.828	598.13
705.012	574.8
705.196	593.13
705.38	568.14
705.564	571.28
705.748	541.66
705.932	545.18
706.116	527.96
706.3	557.77
706.484	508.71
706.668	504.82
706.851	491.86
707.035	483.72
707.219	452.06
707.403	499.82
707.587	454.47
707.771	462.43
707.954	423.37
708.138	455.02
708.322	421.15
708.506	416.33
708.689	419.3
708.873	429.85
709.057	363.2
709.241	400.41
709.424	382.83
709.608	385.97
709.792	375.05
709.975	368.02
710.159	356.17
710.342	361.91
710.526	338.21
710.709	347.1
710.893	313.96
711.077	327.84
711.26	307.48
711.443	331.55
711.627	264.34
711.81	276.93
711.994	278.97
712.177	304.52
712.361	281.19
712.544	287.3
712.727	291.93
712.911	272.31
713.094	263.42
713.277	247.68
713.461	247.31
713.644	251.94
713.827	248.61
714.011	218.43
714.194	224.91
714.377	256.01
714.56	205.66
714.743	231.58
714.927	223.06
715.11	241.76
715.293	189.18
715.476	199.37
715.659	217.88
715.842	230.1
716.025	196.59
716.208	199
716.391	187.15
716.575	197.14
716.758	179.56
716.941	188.44
717.124	191.96
717.306	178.26
717.489	176.41
717.672	181.78
717.855	164.19
718.038	163.27
718.221	164.01
718.404	139.57
718.587	155.31
718.77	162.9
718.952	152.9
719.135	147.9
719.318	155.68
719.501	150.68
719.684	110.5
719.866	144.57
720.049	145.68
720.232	122.17
720.414	117.35
720.597	128.28
720.78	136.42
720.962	111.62
721.145	122.91
721.328	123.46
721.51	109.76
721.693	110.13
721.875	116.98
722.058	124.57
722.24	121.06
722.423	101.62
722.605	121.61
722.788	91.44
722.97	111.43
723.153	81.81
723.335	88.29
723.518	99.21
723.7	82.55
723.882	72.18
724.065	103.1
724.247	81.25
724.429	89.03
724.612	86.99
724.794	79.03
724.976	52
725.159	97.55
725.341	80.7
725.523	60.71
725.705	93.1
725.888	101.25
726.07	82.92
726.252	58.3
726.434	53.49
726.616	86.62
726.798	70.7
726.98	67.56
727.162	76.81
727.345	66.07
727.527	51.08
727.709	67.37
727.891	52.38
728.073	83.11
728.255	62.74
728.437	72
728.619	54.97
728.801	59.6
728.982	56.63
729.164	63.85
729.346	64.59
729.528	40.53
729.71	53.67
729.892	63.85
730.074	37.38
730.255	35.9
730.437	47.38
730.619	42.93
730.801	25.72
730.983	51.82
731.164	45.34
731.346	54.97
731.528	50.52
731.709	61.63
731.891	55.52
732.073	59.41
732.254	18.68
732.436	38.86
732.617	34.79
732.799	63.48
732.981	42.38
733.162	67
733.344	48.3
733.525	35.34
733.707	17.2
733.888	46.27
734.07	33.86
734.251	38.86
734.433	40.9
734.614	41.08
734.795	55.71
734.977	34.05
735.158	26.09
735.34	41.82
735.521	29.42
735.702	31.46
735.883	26.83
736.065	36.27
736.246	42.93
736.427	21.83
736.609	27.2
736.79	32.57
736.971	30.53
737.152	20.72
737.333	9.98
737.514	25.9
737.696	15.72
737.877	33.49
738.058	35.16
738.239	10.54
738.42	25.35
738.601	32.38
738.782	30.9
738.963	31.27
739.144	5.35
739.325	24.98
739.506	15.35
739.687	19.05
739.868	20.9
740.049	17.94
740.23	18.87
740.411	26.09
740.592	12.76
740.773	42.19
740.953	6.83
741.134	15.35
741.315	18.87
741.496	25.35
741.677	15.35
741.857	32.75
742.038	17.39
742.219	32.94
742.4	6.65
742.58	39.79
742.761	-1.5
742.942	32.94
743.122	11.46
743.303	39.6
743.484	-5.57
743.664	26.64
743.845	13.68
744.025	15.16
744.206	16.83
744.386	1.1
744.567	11.83
744.748	24.79
744.928	5.17
745.108	15.91
745.289	-0.39
745.469	28.86
745.65	-13.34
745.83	30.16
746.011	6.09
746.191	22.76
746.371	12.39
746.552	34.6
746.732	21.09
746.912	34.79
747.093	-15.75
747.273	19.98
747.453	-10.75
747.633	18.13
747.814	17.76
747.994	17.39
748.174	16.46
748.354	15.54
748.534	12.57
748.715	10.91
748.895	-11.12
749.075	21.46
749.255	-3.72
749.435	17.39
749.615	10.72
749.795	26.46
749.975	-7.24
750.155	12.02
750.335	13.31
750.515	16.28
750.695	4.61
750.875	13.13
751.055	18.5
751.235	15.16
751.415	-4.83
751.595	24.24
751.775	-6.68
751.954	8.5
752.134	24.98
752.314	4.43
752.494	14.79
752.674	6.28
752.854	25.53
753.033	9.24
753.213	-11.31
753.393	-2.98
753.572	-5.2
753.752	0.54
753.932	13.5
754.111	9.06
754.291	9.43
754.471	53.86
754.65	3.69
754.83	13.87
755.01	-15.2
755.189	-7.61
755.369	3.13
755.548	20.9
755.728	-0.02
755.907	15.91
756.087	-9.27
756.266	17.39
756.446	-24.08
756.625	2.76
756.804	-17.42
756.984	-3.35
757.163	3.87
757.343	21.46
757.522	-7.05
757.701	-1.13
757.881	-21.3
758.06	9.8
758.239	10.35
758.418	5.91
758.598	-6.12
758.777	10.35
758.956	-2.05
759.135	13.13
759.315	4.06
759.494	4.61
759.673	0.91
759.852	-3.53
760.031	-2.42
760.21	2.58
760.389	12.94
760.568	-15.38
760.748	8.5
760.927	15.54
761.106	-10.01
761.285	13.68
761.464	-1.87
761.643	-3.16
761.822	-30.93
762	-0.2
762.179	-8.53
762.358	12.39
762.537	-15.2
762.716	8.13
762.895	-8.35
763.074	27.38
763.253	-14.46
763.431	-0.02
763.61	-12.97
763.789	-16.12
763.968	4.8
764.147	-6.12
764.325	-8.72
764.504	23.31
764.683	-3.72
764.861	8.87
765.04	-3.16
765.219	12.2
765.397	14.42
765.576	9.43
765.755	-3.16
765.933	0.54
766.112	5.72
766.29	-0.76
766.469	-8.35
766.647	8.5
766.826	-25.19
767.004	17.76
767.183	-14.83
767.361	18.68
767.54	-1.87
767.718	-4.64
767.897	-6.68
768.075	-6.12
768.253	-25.56
768.432	-0.76
768.61	-24.64
768.788	13.5
768.967	-18.34
769.145	18.13
769.323	-10.01
769.501	-2.98
769.68	-15.38
769.858	-5.01
770.036	-7.05
770.214	-13.16
770.393	-1.13
770.571	12.02
770.749	-28.15
770.927	14.98
771.105	2.58
771.283	-1.68
771.461	-12.97
771.639	-6.49
771.817	-3.9
771.995	1.65
772.173	-16.49
772.351	7.39
772.529	-17.42
772.707	5.72
772.885	-0.94
773.063	11.65
773.241	-23.9
773.419	14.98
773.597	-31.67
773.775	4.24
773.953	-28.15
774.131	19.24
774.308	-16.12
774.486	-3.9
774.664	-12.42
774.842	11.65
775.02	-26.86
775.197	12.76
775.375	-10.57
775.553	-2.79
775.73	-22.97
775.908	12.02
776.086	-1.87
776.263	-8.35
776.441	-18.34
776.619	10.35
776.796	1.65
776.974	-9.09
777.151	2.95
777.329	16.65
777.506	7.76
777.684	-20.75
777.861	-25.01
778.039	2.39
778.216	-0.76
778.394	4.24
778.571	-27.23
778.749	-21.49
778.926	-12.97
779.103	-25.93
779.281	-3.35
779.458	2.95
779.635	-3.53
779.813	-0.02
779.99	-25.75
780.167	-9.83
780.345	-13.71
780.522	-2.24
780.699	-17.79
780.876	2.58
781.054	-10.38
781.231	-24.64
781.408	-15.75
781.585	2.21
781.762	-14.27
781.939	-0.57
782.116	-20.01
782.294	-4.09
782.471	-5.57
782.648	27.01
782.825	-3.9
783.002	-3.16
783.179	-14.83
783.356	-4.09
783.533	-27.6
783.71	-8.53
783.887	-6.87
784.064	-32.97
784.24	22.2
784.417	-10.2
784.594	-27.97
784.771	-6.68
784.948	-20.38
785.125	-22.42
785.302	-45.74
785.478	14.79
785.655	2.95
785.832	14.42
786.009	-18.9
786.185	-2.05
786.362	-10.94
786.539	12.94
786.715	-9.46
786.892	3.5
787.069	-28.9
787.245	-14.27
787.422	-12.6
787.599	-2.98
787.775	-28.34
787.952	-13.53
788.128	-8.9
788.305	-16.68
788.481	-33.52
788.658	-4.83
788.834	-13.53
789.011	-7.42
789.187	-12.42
789.364	4.06
789.54	-5.38
789.717	0.54
789.893	-14.09
790.069	3.87
790.246	5.72
790.422	11.46
790.598	-28.9
790.775	7.02
790.951	-33.71
791.127	-2.61
791.304	-19.08
791.48	2.95
791.656	-21.49
791.832	-2.42
792.008	-22.6
792.185	6.83
792.361	-0.76
792.537	27.01
792.713	-20.93
792.889	-15.01
793.065	-4.64
793.241	-12.42
793.417	-18.71
793.593	-1.87
793.769	3.32
793.945	11.09
794.121	1.84
794.297	-3.72
794.473	-33.15
794.649	13.5
794.825	-25.93
795.001	-15.2
795.177	-5.75
795.353	-13.34
795.529	-21.12
795.705	-1.13
795.881	-8.53
796.056	3.13
796.232	-26.49
796.408	-22.23
796.584	-12.23
796.76	-6.87
796.935	-28.34
797.111	19.98
797.287	-17.05
797.462	14.24
797.638	-22.42
797.814	6.09
797.989	-11.12
798.165	5.17
798.341	-16.12
798.516	12.39
798.692	-30.01
798.867	-6.87
799.043	-5.2
799.218	7.76
799.394	-13.34
799.569	6.46
799.745	-20.01
799.92	12.76
800.096	-9.46
800.271	-18.9
800.447	-4.64
800.622	2.95
800.797	-20.93
800.973	-19.27
801.148	-30.19
801.323	-10.38
801.499	10.17
801.674	-11.31
801.849	-9.09
802.025	-2.05
802.2	-23.71
802.375	-15.75
802.55	-27.04
802.725	25.16
802.901	18.31
803.076	18.13
803.251	-10.57
803.426	0.17
803.601	-27.78
803.776	-18.34
803.951	-20.01
804.127	1.84
804.302	-7.42
804.477	-6.49
804.652	-5.01
804.827	2.39
805.002	-23.16
805.177	7.94
805.352	-23.53
805.526	-5.2
805.701	-2.79
805.876	5.54
806.051	-26.49
806.226	-14.46
806.401	-11.31
806.576	-16.68
806.751	-13.71
806.925	-5.2
807.1	2.76
807.275	-21.12
807.45	-10.38
807.625	5.17
807.799	-26.12
807.974	-5.57
808.149	-29.82
808.323	21.27
808.498	-22.42
808.673	-2.79
808.847	-16.31
809.022	12.94
809.197	-12.23
809.371	3.13
809.546	-1.87
809.72	-9.09
809.895	-14.64
810.069	-7.98
810.244	-26.12
810.418	-9.09
810.593	-10.01
810.767	-27.97
810.942	-20.93
811.116	-6.31
811.29	-39.63
811.465	-5.75
811.639	-19.08
811.814	3.32
811.988	-14.27
812.162	-10.01
812.337	-10.94
812.511	4.06
812.685	-4.64
812.859	-1.31
813.034	-5.01
813.208	-0.2
813.382	8.5
813.556	6.46
813.73	-39.26
813.905	-10.94
814.079	-16.68
814.253	-2.24
814.427	-6.49
814.601	-14.46
814.775	-30.75
814.949	-17.42
815.123	-15.38
815.297	-2.24
815.471	-15.38
815.645	4.06
815.819	-0.76
815.993	7.57
816.167	-17.23
816.341	-0.94
816.515	-20.19
816.689	-17.79
816.863	-12.42
817.037	7.39
817.21	4.98
817.384	-21.49
817.558	-25.75
817.732	11.65
817.906	-4.27
818.079	-14.83
818.253	-11.49
818.427	-7.79
818.601	-22.6
818.774	4.98
818.948	-6.12
819.122	-2.24
819.295	-19.08
819.469	-30.19
819.643	-1.87
819.816	-8.9
819.99	2.76
820.163	-0.57
820.337	-0.02
820.511	-24.64
820.684	-13.71
820.858	4.98
821.031	2.39
821.205	-19.08
821.378	3.5
821.551	-11.86
821.725	-24.27
821.898	12.39
822.072	-13.53
822.245	-15.75
822.418	-22.97
822.592	1.65
822.765	-10.2
822.938	2.21
823.112	-31.12
823.285	-0.02
823.458	-11.12
823.631	7.94
823.805	-11.86
823.978	-4.64
824.151	3.69
824.324	15.16
824.497	-25.75
824.671	1.65
824.844	-9.27
825.017	-26.49
825.19	-15.57
825.363	1.65
825.536	-21.49
825.709	-15.94
825.882	-20.56
826.055	-18.16
826.228	3.87
826.401	-18.9
826.574	-24.08
826.747	12.94
826.92	-17.97
827.093	20.53
827.266	-10.01
827.439	-16.86
827.612	-26.3
827.785	22.76
827.957	1.65
828.13	-14.09
828.303	-30.75
828.476	-5.01
828.649	-2.61
828.821	-1.13
828.994	2.76
829.167	13.13
829.34	-18.34
829.512	-3.35
829.685	-7.79
829.858	-5.2
830.03	-15.75
830.203	-18.71
830.375	-1.5
830.548	15.72
830.721	-30.56
830.893	7.94
831.066	-9.64
831.238	-21.12
831.411	-15.38
831.583	1.65
831.756	-28.15
831.928	0.73
832.101	-21.68
832.273	-19.27
832.446	-20.01
832.618	-2.24
832.79	-12.23
832.963	-0.2
833.135	-25.01
833.307	-3.16
833.48	-26.86
833.652	-14.64
833.824	-19.08
833.997	-0.94
834.169	-0.76
834.341	13.31
834.513	-14.09
834.686	-11.31
834.858	10.54
835.03	6.83
835.202	-5.2
835.374	-16.12
835.546	-6.31
835.718	-6.49
835.891	-48.89
836.063	14.05
836.235	-2.61
836.407	-16.86
836.579	-11.49
836.751	-6.87
836.923	-7.24
837.095	-9.83
837.267	-15.57
837.439	-7.42
837.611	-26.67
837.782	-6.31
837.954	-30.93
838.126	1.28
838.298	-19.45
838.47	-1.68
838.642	-7.24
838.814	13.87
838.985	-7.61
839.157	8.13
839.329	-21.68
839.501	-9.83
839.672	-22.42
839.844	-4.83
840.016	-18.34
840.188	8.69
840.359	-14.09
840.531	-22.05
840.702	-17.05
840.874	-17.6
841.046	-16.12
841.217	-0.94
841.389	-26.86
841.56	-4.46
841.732	-34.26
841.903	0.54
842.075	-37.23
842.246	-19.64
842.418	-27.78
842.589	-4.83
842.761	-18.16
842.932	-2.79
843.104	-18.9
843.275	-0.02
843.446	-10.2
843.618	-2.05
843.789	-1.87
843.96	18.87
844.132	-24.45
844.303	-20.38
844.474	-19.08
844.646	-15.75
844.817	-14.46
844.988	-20.56
845.159	-16.31
845.331	5.35
845.502	-12.97
845.673	-9.64
845.844	-16.86
846.015	-16.86
846.186	-20.19
846.357	-9.83
846.528	-3.35
846.7	10.91
846.871	-23.34
847.042	-10.38
847.213	-9.27
847.384	-14.64
847.555	-2.61
847.726	24.24
847.897	-16.12
848.067	-8.9
848.238	-29.82
848.409	-3.9
848.58	-30.01
848.751	-15.2
848.922	-9.83
849.093	-2.05
849.264	-42.41
849.434	-15.57
849.605	-9.27
849.776	-0.2
849.947	-8.72
850.117	9.24
850.288	3.87
850.459	-5.57
850.63	-14.27
850.8	-11.49
850.971	3.87
851.142	2.39
851.312	-40
851.483	-11.68
851.653	-8.16
851.824	-2.61
851.995	-37.78
852.165	2.58
852.336	-26.3
852.506	7.94
852.677	-14.09
852.847	-12.42
853.018	-4.27
853.188	-10.2
853.358	-8.35
853.529	6.65
853.699	2.76
853.87	-20.75
854.04	-30.75
854.21	0.91
854.381	-19.82
854.551	6.46
854.721	-24.27
854.892	-2.61
855.062	7.39
855.232	-10.01
855.402	-23.9
855.573	6.65
855.743	-32.41
855.913	-4.83
856.083	-14.09
856.253	-6.87
856.423	-27.41
856.594	-0.57
856.764	7.39
856.934	3.13
857.104	-23.71
857.274	-0.2
857.444	-14.83
857.614	-5.38
857.784	-10.38
857.954	-14.83
858.124	-39.82
858.294	-21.3
858.464	-16.68
858.634	0.17
858.804	3.87
858.974	-19.82
859.143	-20.56
859.313	-5.57
859.483	-17.97
859.653	-10.57
859.823	-8.9
859.993	8.87
860.162	-29.27
860.332	-3.16
860.502	-24.27
860.672	0.54
860.841	-33.15
861.011	13.13
861.181	-17.23
861.35	-11.68
861.52	-23.16
861.69	-23.71
861.859	-5.57
862.029	-1.31
862.198	-9.27
862.368	-0.76
862.538	-27.04
862.707	9.06
862.877	-7.05
863.046	-7.24
863.216	-21.86
863.385	0.73
863.555	-27.41
863.724	-1.68
863.893	-13.16
864.063	-15.75
864.232	-29.08
864.402	-11.31
864.571	-2.61
864.74	-3.72
864.91	-38.15
865.079	-16.68
865.248	-15.57
865.418	-11.68
865.587	-20.19
865.756	-8.9
865.925	-6.68
866.094	-4.09
866.264	-7.61
866.433	-17.97
866.602	-26.3
866.771	-10.2
866.94	-14.27
867.109	-15.2
867.278	-21.68
867.448	-23.53
867.617	-20.93
867.786	-3.53
867.955	-20.38
868.124	-4.09
868.293	-13.9
868.462	13.13
868.631	-30.19
868.8	-6.68
868.969	-22.97
869.137	-3.16
869.306	-29.08
869.475	4.43
869.644	-16.12
869.813	0.17
869.982	-6.49
870.151	-5.75
870.319	-7.05
870.488	-20.38
870.657	-11.12
870.826	-28.15
870.995	-10.75
871.163	3.69
871.332	-22.42
871.501	15.91
871.669	-36.86
871.838	8.32
872.007	-34.45
872.175	1.28
872.344	-43.15
872.512	-12.79
872.681	-24.27
872.85	-11.12
873.018	-31.3
873.187	8.13
873.355	-40.74
873.524	5.91
873.692	-28.34
873.861	5.17
874.029	-3.16
874.197	-13.53
874.366	-16.12
874.534	3.32
874.703	-15.94
874.871	-10.38
875.039	-5.75
875.208	-15.57
875.376	-12.79
875.544	2.58
875.713	2.21
875.881	-17.42
876.049	-8.16
876.217	-7.98
876.386	-23.71
876.554	-10.94
876.722	-11.12
876.89	0.91
877.058	-12.23
877.226	0.91
877.395	-12.05
877.563	8.5
877.731	-5.38
877.899	-1.87
878.067	-16.49
878.235	-15.38
878.403	-20.56
878.571	9.8
878.739	-29.82
878.907	-18.53
879.075	-16.12
879.243	-2.05
879.411	-39.26
879.579	-13.9
879.747	2.21
879.914	-23.9
880.082	-22.23
880.25	-15.01
880.418	-38.34
880.586	-14.64
880.754	-27.97
880.921	3.5
881.089	-16.68
881.257	8.13
881.425	0.73
881.592	-6.87
881.76	-12.42
881.928	5.54
882.095	-15.75
882.263	4.06
882.431	-19.64
882.598	0.54
882.766	-14.46
882.933	-12.6
883.101	-8.9
883.269	12.94
883.436	-40.93
883.604	-0.94
883.771	-7.61
883.939	-28.34
884.106	-0.39
884.273	-19.45
884.441	7.39
884.608	-7.05
884.776	-25.75
884.943	-9.09
885.11	21.64
885.278	12.39
885.445	-16.86
885.613	1.47
885.78	-14.46
885.947	3.5
886.114	-20.38
886.282	-22.6
886.449	-22.97
886.616	-0.02
886.783	-10.57
886.951	-9.64
887.118	-13.53
887.285	2.02
887.452	-11.68
887.619	13.31
887.786	-18.34
887.953	-14.09
888.12	-13.16
888.287	-4.83
888.455	-39.26
888.622	7.94
888.789	-9.83
888.956	3.69
889.123	-9.27
889.29	-9.09
889.456	-12.42
889.623	-9.64
889.79	-11.86
889.957	2.58
890.124	-5.75
890.291	-1.5
890.458	-19.82
890.625	-14.09
890.791	-12.79
890.958	-8.9
891.125	-6.12
891.292	-12.79
891.459	-12.97
891.625	-2.42
891.792	-22.42
891.959	13.5
892.125	-15.94
892.292	-5.94
892.459	-21.3
892.625	2.95
892.792	-20.93
892.959	-2.98
893.125	-30.93
893.292	6.65
893.458	-34.63
893.625	5.35
893.791	-29.45
893.958	-6.68
894.124	0.17
894.291	-11.31
894.457	0.54
894.624	-12.42
894.79	-16.86
894.957	2.95
895.123	-9.27
895.289	-10.75
895.456	-35.19
895.622	-11.31
895.788	-6.12
895.955	7.94
896.121	-8.53
896.287	-12.97
896.454	-17.97
896.62	-31.3
896.786	-30.56
896.952	4.24
897.119	-35
897.285	-7.05
897.451	2.39
897.617	-28.71
897.783	-2.24
897.949	-6.68
898.115	-22.05
898.281	-17.42
898.448	-31.86
898.614	-27.23
898.78	-17.23
898.946	-12.42
899.112	-31.86
899.278	-23.9
899.444	-23.53
899.61	-3.9
899.775	3.87
899.941	-10.2
900.107	-13.34
900.273	26.46
900.439	3.87
900.605	22.94
900.771	-23.71
900.937	4.24
901.102	-7.79
901.268	1.84
901.434	-18.9
901.6	-19.45
901.766	-13.34
901.931	-8.16
902.097	-21.12
902.263	-23.71
902.428	-14.27
902.594	-2.05
902.76	-13.16
902.925	8.13
903.091	-47.78
903.256	8.32
903.422	-8.53
903.588	-5.57
903.753	-9.46
903.919	-12.6
904.084	-16.68
904.25	-23.34
904.415	-14.64
904.581	25.16
904.746	-14.83
904.912	2.58
905.077	-13.16
905.242	-2.05
905.408	-24.08
905.573	-17.79
905.738	-8.72
905.904	3.69
906.069	3.69
